flux,fluxerr
0.23241157507464708, 0.039274884658941564
0.22897007772874087, 0.035630822411864056
0.22464503484285264, 0.0322963090281648
0.21941692257674605, 0.029338259529687494
0.21327736110959833, 0.026816893311816057
0.2062317645138332, 0.024774302704957604
0.19830240707543587, 0.023221044837284904
0.1895317932751572, 0.022126499650327695
0.17998370322965598, 0.021421529551158093
0.1697392989495995, 0.021014745550510923
0.15889204560163453, 0.020811393760047044
0.14754266216822337, 0.020728037509348707
0.13579497430913817, 0.02070075930805655
0.12376128224381266, 0.020687300314536725
0.11157918850212253, 0.0206654083744497
0.0994283380845401, 0.02062811007803164
0.08752672650009223, 0.02057877461484455
0.07610369894357767, 0.02052690543639137
0.06537076310570661, 0.020483448546163262
0.05550127055532226, 0.020457159437544063
0.04661903167857201, 0.02045237861056325
0.038795137669638366, 0.020468303791371587
0.03205078732190557, 0.02049935947258178
0.0263638118582868, 0.020536692980429972
0.021677182714292868, 0.020570214234065395
0.01790782570930725, 0.020591234439890044
0.014955358204191953, 0.020594468636530448
0.0127098152438692, 0.020578736385439843
0.011057211660143418, 0.02054781906088867
0.009884067921322482, 0.020510140846192095
0.00908188428026093, 0.02047697271594242
0.008551791467013386, 0.02046066794757504
0.00820931201152819, 0.020471882197290438
0.007987781869587074, 0.020516584421476525
0.007838066023312667, 0.020595762162630097
0.007725784531194814, 0.020707360585800184
0.007628249363763966, 0.020848709570980208
0.007531579333177635, 0.0210188304659637
0.007427972419292031, 0.02121821129955586
0.007313163959163842, 0.021445815842248344
0.0071847400797724345, 0.02169660528728829
0.007041604810372262, 0.021962711330998023
0.006883719795975479, 0.022239376277528287
0.006711879009852039, 0.022534902527029027
0.006527503873525407, 0.022880068933833878
0.00633245338539503, 0.023333535882065694
0.006128845496422954, 0.023980062869760635
0.005918886136710693, 0.0249189970602063
0.005704702703845609, 0.026243344068861984
0.005488200898791939, 0.02801621659138711
0.005271022093998769, 0.030258773110268603
0.005054567651365505, 0.03295317730219412
0.004840026215868024, 0.036053678966482844
0.0046283982276323025, 0.039499338078578104
0.0044205179161838195, 0.04322424704563137
0.004217073019554178, 0.04716406763111487
0.004018622448482796, 0.05125947158502191
0.2407046687381123, 0.041269043921750154
0.23776879770117101, 0.03735800923185589
0.23387758287463573, 0.03377078859023533
0.2290015117506231, 0.030583698184286332
0.22312267841923789, 0.027866684691171865
0.21623781594137403, 0.025670085465651634
0.2083618339746742, 0.02400856008375034
0.19953174953709957, 0.022849127033031703
0.18980816629686184, 0.022114073093555325
0.1792714692760964, 0.021700463532178957
0.16801679207808703, 0.02150245127665954
0.15614882319793758, 0.02142802477626888
0.14377737465565388, 0.02140783924034469
0.13102417796301313, 0.021397060666703417
0.11804330140809384, 0.021373122958138882
0.10504146163050708, 0.021330102516015702
0.09227335712495792, 0.021273114985393596
0.08000847806004624, 0.021213731674461122
0.06849530224325986, 0.021164737892581772
0.05793651943485998, 0.021136106275603576
0.048475338459743306, 0.021132584994561297
0.04019198933915901, 0.021152982848938667
0.03310759216880437, 0.021190647971203014
0.02719224577426525, 0.021235212376016742
0.022375370750846, 0.021274929687875255
0.018556568867504987, 0.021299745615447573
0.015616487684202901, 0.021303588580396545
0.013426318940623775, 0.0212850848400144
0.011854238899253532, 0.02124859041072402
0.010770410718898109, 0.021203839348248925
0.010052046568720807, 0.021163799448800223
0.009589008058039679, 0.02114261809586827
0.009289680197978038, 0.02115228754377752
0.009084803892457336, 0.021199045588481815
0.008926133136419582, 0.021283203744845127
0.008782223492845069, 0.021401793512390882
0.008634279062396338, 0.02155174907707371
0.008472738014047427, 0.021732762098112653
0.008294179239269377, 0.02194668425189722
0.00809843726550949, 0.02219318429987336
0.00788664053512998, 0.022465924564313105
0.007660506312934589, 0.022753393313765757
0.007422050045082517, 0.0230459328527448
0.007173467463703022, 0.023348066641013104
0.0069170502914402306, 0.023690447502086973
0.00665510774086213, 0.024137162266563632
0.006389891660579625, 0.02478444337630122
0.006123523413750293, 0.025747351813413463
0.005857920787549672, 0.027134382517205697
0.005594735971633171, 0.029018385348320568
0.005335349348595746, 0.031421819937689714
0.005080899862343426, 0.03432096982277647
0.004832315198348978, 0.03766012515035887
0.004590338652870773, 0.04136726186341293
0.004355553028160293, 0.04536612388962516
0.004128401859589523, 0.0495835650676092
0.003909208250523611, 0.05395314590376491
0.24722775806798183, 0.04304669972018152
0.2449078541659258, 0.03886380835689937
0.24156257816829196, 0.035017097963944144
0.23715052226296637, 0.03159363025860139
0.23164222010166952, 0.028674784537999917
0.22502362042824714, 0.02632087587428058
0.21730017738572516, 0.024551737131501793
0.20850144763954467, 0.02333171986822279
0.19868308279708566, 0.02257292492541357
0.1879231142847063, 0.022158958436604353
0.1763169673500798, 0.02197152617332063
0.1639721169299358, 0.02190949035008142
0.15100338762319288, 0.021898139690215448
0.13754164094802285, 0.02189044103863486
0.12375880228445663, 0.021864011148875213
0.10989276882964244, 0.021814408918696536
0.09624152204073208, 0.02174881594940797
0.0831220342492929, 0.021681139897438386
0.07082604092722082, 0.021626191162149696
0.0595897320476518, 0.021595244117547735
0.04957738142521593, 0.02159344499550866
0.04087774584562403, 0.021619133609788906
0.03350955183511755, 0.021664436670126148
0.027431720231916677, 0.021717277947935345
0.02255606750934111, 0.021764033473692015
0.01876066478379809, 0.021793108330944257
0.015903237683922496, 0.02179755471765888
0.013832757579774617, 0.0217757689985968
0.01239686650042368, 0.021732765364909087
0.01144737450061282, 0.021679813190327114
0.010845969375075308, 0.021631866303357183
0.010470929391411313, 0.0216051646457107
0.010224324236354427, 0.021613176294321423
0.010036232874380055, 0.021662186584790702
0.009861838713187831, 0.021751327281045337
0.009675216312972662, 0.02187624278465552
0.009463718800530903, 0.022033367948160403
0.009223955629505018, 0.022223573949123537
0.008958328540560046, 0.02245104290934517
0.00867179704795987, 0.022716973852867854
0.008369665823609644, 0.023013753946468332
0.008056776791097156, 0.023325146071094278
0.007737257473753813, 0.023634650549447793
0.0074145690271925834, 0.023940958059003193
0.0070915937391498205, 0.024273278701595596
0.0067707136560274635, 0.024701281009906158
0.006453881159252141, 0.025334711608585078
0.006142682535378784, 0.026307980009221302
0.005838395478042345, 0.027748959198046347
0.005542039777566536, 0.02974247907659065
0.005254416123399716, 0.032312018719179686
0.004976135968154127, 0.035425827841561265
0.00470764755958923, 0.039015445599087005
0.004449258943988857, 0.04299526309892419
0.00420115826543283, 0.047276836791939586
0.003963431652152361, 0.05177703516015362
0.003736078951400746, 0.05642165250882071
0.2524563867421233, 0.0446563250799448
0.2508526746203435, 0.04019102109508327
0.24815606841707724, 0.03607269268603372
0.24431120110571475, 0.03240068177344488
0.2392747901381086, 0.02926978613515627
0.23301961081244654, 0.026752343544596203
0.2255392243304352, 0.024874583473228847
0.21685335587808788, 0.02359764973449468
0.20701049452362513, 0.022821288048764307
0.19608429164301314, 0.02241324255444348
0.1841686505562488, 0.022241240743020307
0.17137223608444102, 0.022194545920827514
0.15781351631082494, 0.0221933003050938
0.1436319313916126, 0.022188763165297876
0.12901884966899113, 0.022159276606206986
0.11424840394510559, 0.022102277923187735
0.09967005643336802, 0.022027248183506154
0.08565735880881054, 0.021950628727705205
0.0725529437289892, 0.02188939330162375
0.06063132100861435, 0.021856179389855238
0.05007942598334843, 0.02185652427896265
0.04099330785924299, 0.02188824602126099
0.03338609984229634, 0.021942139682801003
0.02720117608101998, 0.0220042532438683
0.022327893340109817, 0.022058865301528965
0.018617997674609716, 0.022092656657014938
0.015902024744049816, 0.022097700638804535
0.014003331268581718, 0.0220720938615782
0.01274654871944113, 0.0220215769701916
0.011963496870207178, 0.021959211574808648
0.011499527588277459, 0.021902294827934522
0.011221496452993812, 0.021869555601381114
0.011026516652241119, 0.021876132596803027
0.010846497284632054, 0.021928046957923678
0.010643040586185539, 0.022022519991672686
0.010398544238855558, 0.022153092909466196
0.010108714286035648, 0.022315496220451352
0.009777917683873831, 0.02251247131863638
0.00941542630650969, 0.02275194366411776
0.009031904444704314, 0.023037952914436274
0.00863703181931538, 0.023361872163184725
0.008238703724026736, 0.023701483359455985
0.00784290564949455, 0.024030972007923167
0.007453981959400182, 0.024340496829538233
0.0070749386778441135, 0.024656013543949747
0.006707717013742462, 0.02505282445103902
0.006353443025041557, 0.025656722282381885
0.006012658906540024, 0.026626192796205473
0.005685540824646291, 0.0281136320978129
0.005372087214056282, 0.03021874936675419
0.005072206097773133, 0.032965486327521804
0.004785734126265187, 0.03631107480914492
0.004512448341728972, 0.0401706773648806
0.0042520765468352355, 0.04444204521776197
0.004004306424973576, 0.04902244184902841
0.0037687935419484205, 0.053817496873242957
0.0035451683466638296, 0.058744606817228213
0.2564527494384281, 0.046044115383727546
0.2556117342560502, 0.04130064991935156
0.25361812573845494, 0.03691296471950881
0.25040140640418773, 0.0329934911829188
0.24590301571954698, 0.02965170049702611
0.24008083938163133, 0.026973400344567126
0.23291461024738253, 0.02499209957532781
0.224412125755952, 0.023665169146884563
0.2146125206596453, 0.02287817503026339
0.20358283428360113, 0.022481326153462378
0.19141324965548207, 0.02232777957472522
0.17821149374883188, 0.022297572846520806
0.16409764194107723, 0.022306461637265768
0.14921829396298944, 0.022304687369592013
0.13378463029919122, 0.022271795953983698
0.11811036998553524, 0.022207274625260346
0.10260248999861958, 0.022122851330312953
0.08769781003882426, 0.02203743360314208
0.07379508916914936, 0.02197009903771495
0.061209795208953297, 0.02193480187670368
0.05015138110420264, 0.02193745407011822
0.04072083620396824, 0.02197538013015156
0.032922140061373915, 0.022038077850497953
0.026679158954590894, 0.022109722098525433
0.021855028728268014, 0.022172430787247736
0.018271996009355338, 0.022211091390793147
0.01573108367299009, 0.022216744884270386
0.014028725181794894, 0.02218708689198628
0.012966131666566447, 0.022128560321694597
0.012355397929449495, 0.022056159180950385
0.012026338647890879, 0.021989778396696094
0.011835772807449418, 0.021950976661207433
0.011677978511776545, 0.021956740388019313
0.011489439010485112, 0.022012485461861242
0.01124093791495851, 0.022112715639416494
0.010925378309919149, 0.022248034716427167
0.010548110649460908, 0.022413153967476777
0.01012177213451379, 0.022613362456687467
0.009662446759346676, 0.022861892502017356
0.009186066826027498, 0.023167235191516627
0.008706046726443694, 0.0235203715017686
0.008232645109291278, 0.023892163901985248
0.007773054366007424, 0.02424521065361046
0.007331909232084602, 0.024558463714661406
0.006911809858554146, 0.024852575857925226
0.006513792418716995, 0.02520798794564407
0.0061377583216342835, 0.02576831644876374
0.005782872895191304, 0.02672012986953359
0.00544794331157964, 0.028244933360556272
0.005131743546257674, 0.03045971360487714
0.004833143378839658, 0.03338787759738778
0.0045511064365650325, 0.03697254913024852
0.0042846787009894515, 0.04110929052628561
0.004032978653439826, 0.04567693420275524
0.003795188833053364, 0.05055723836526327
0.003570548605649872, 0.05564416359819707
0.0033583479689992305, 0.06084675180102245
0.2593441012280763, 0.04719507070707592
0.25930102838395136, 0.04218049914880757
0.25805538827748814, 0.03752861051260367
0.25552057934189154, 0.03336556447400647
0.25162149072919004, 0.02981662692537274
0.2462994975618503, 0.026982453018224127
0.23951853961132893, 0.024904637439419192
0.23127220383561078, 0.02353600025575551
0.22158773145466237, 0.022745850048463714
0.21052286566579917, 0.022365205530316172
0.1981613854735662, 0.02223240419001058
0.1846074732698399, 0.022219063672279438
0.1699803015155122, 0.02223761114800536
0.1544317734123829, 0.022238059614836863
0.1381929391818025, 0.022201595185033403
0.12162036561026437, 0.022129795280523386
0.10518466745184235, 0.022036425302937323
0.08939267536696203, 0.021942676506526374
0.07470431179124519, 0.02186960367869869
0.061478138827941176, 0.02183240560705048
0.049945252147190186, 0.021837365896555532
0.04020847725714055, 0.02188139506946856
0.032258573032132885, 0.021952801681787888
0.025995827120939837, 0.022033966179709603
0.021253731981729085, 0.022104839588603528
0.01782258054745908, 0.022148483980294432
0.01547253089319656, 0.02215485929617131
0.013972881335114356, 0.022121104855793994
0.013102116119211851, 0.022054262247576815
0.012653866320210714, 0.021971337749150947
0.01244400510508209, 0.021895065160649846
0.012321259971237035, 0.02185024037630724
0.012179499261087943, 0.02185597332713299
0.01196255867167672, 0.021916749367679185
0.011652927403404564, 0.02202343180397544
0.011255696926912367, 0.022162649766354167
0.010786436765570818, 0.022327597843717944
0.010265730374235393, 0.02252678345649644
0.009715564651060339, 0.022780549687521235
0.009155935903331766, 0.023103828926144866
0.008602747007211387, 0.023488133692384606
0.008067532311880085, 0.023896530355223454
0.007557853494260797, 0.0242775771021919
0.007078027797324903, 0.02459604083555241
0.006629834125832078, 0.02486488449299415
0.00621314472962298, 0.025168897306860435
0.005826499341014949, 0.025671221937374245
0.005467637983611034, 0.026590854901057524
0.005134007068101089, 0.028143562590175156
0.004823193044436257, 0.030466161399552997
0.004533078512764103, 0.03358003332581305
0.004261814113912338, 0.037410482110491104
0.004007780250082968, 0.04182999119803597
0.0037695542349059845, 0.04669633436966175
0.003545882142255944, 0.05187487894014155
0.003335654709705772, 0.05724782989418536
0.003137886736759741, 0.06271620302258875
0.26091197582154824, 0.04799853369692672
0.261631899773713, 0.042747537490470965
0.2611150497421062, 0.037863737987865353
0.25925950590468816, 0.03348619370343769
0.25597401323518154, 0.029755414154119114
0.2511833925448306, 0.026786730949725817
0.24483519752405783, 0.02462975316032246
0.236907560375257, 0.023232270754253267
0.227413924750266, 0.022446722233693643
0.216400355857711, 0.022085252027167303
0.20394160417741578, 0.02197286615592789
0.19013558109801892, 0.021974665616845898
0.1750977495821862, 0.022001256660508058
0.15898262031243907, 0.022003215970729302
0.1420389756007754, 0.021963558749560883
0.12466513267689748, 0.021885683561450788
0.1073951454002305, 0.02178489831090483
0.09080567505000044, 0.021684231951033688
0.07541676099449361, 0.021606387719445355
0.061627837045496264, 0.021567619251152855
0.04968848419126395, 0.02157455390727049
0.039699996358645774, 0.02162383064401995
0.031637285091540374, 0.021702825676427808
0.02537576425094327, 0.021792417745083215
0.020719576655259298, 0.02187063283709616
0.01742879881459765, 0.021918886267463206
0.015245538407753395, 0.021926126802572634
0.013915482782642714, 0.02188880213129839
0.013198230662880193, 0.021814322747655542
0.012872717173821593, 0.021721519988869908
0.012744251814276544, 0.02163589039263148
0.012656314240061733, 0.02158559463633899
0.012504603987499531, 0.02159203459949855
0.012241844117954506, 0.0216586152100695
0.011862904875892399, 0.021771998522435557
0.011384776677025876, 0.02191410213683506
0.01083204057087683, 0.022076105775913017
0.010231390669982401, 0.022269982212226046
0.009608586141462993, 0.022524318152033974
0.008985572190427412, 0.022861999678755726
0.00837890080338504, 0.023276122527558066
0.007800005064468146, 0.023721950449218494
0.007255953998978274, 0.024132943195136654
0.006750318077017282, 0.02445806697662756
0.006283962666964351, 0.024700876085676213
0.00585575344854581, 0.024949120607158055
0.005463194599977101, 0.025385091764302377
0.005103019421290193, 0.02626142467985278
0.004771751130317794, 0.027830166314743172
0.004466182057456516, 0.030248545506728307
0.004183535831302064, 0.03353421801190378
0.00392142007865645, 0.037592362204917316
0.0036777696845312563, 0.04227120211728704
0.003450798242078534, 0.047407669918217224
0.003238956569438095, 0.0528517924425123
0.00304089730944907, 0.05847533798405341
0.002855444759306975, 0.06417257039805437
0.26108688391699303, 0.0484279563398396
0.2624726118858847, 0.04299913238434355
0.26260602527055366, 0.037939467825912156
0.26137233173655416, 0.03339858496236252
0.25866630091194176, 0.02952981868751648
0.2543979354404898, 0.026461148691308157
0.24849951529494563, 0.02424911160666123
0.24093398504639638, 0.022836699078199497
0.23170032666583357, 0.022061136467117444
0.22083154940069658, 0.021718455827837036
0.20839156104812417, 0.021623377192448834
0.19446992530743612, 0.021636925835587465
0.17917606009222953, 0.021669307553398232
0.1626641394956619, 0.021672146866848596
0.14519638636216584, 0.021630130814283974
0.12720652036953695, 0.021547985645851687
0.10928383535556392, 0.02144195891953883
0.09206601866448412, 0.0213363491723158
0.07612515633528825, 0.021255067104365716
0.06189512876842415, 0.021215155784739564
0.049639726527522486, 0.021223524339220416
0.03945683787570775, 0.02127668302236811
0.03130611982782335, 0.0213613928421311
0.025041022918867423, 0.021457454439362155
0.020441234829265294, 0.021541413340431477
0.01724284788937983, 0.021593406416684086
0.015166672067962822, 0.021601570417288975
0.013941356242886834, 0.021561632626454486
0.013313607105355521, 0.021481109456806924
0.01305281277921754, 0.02138023090718776
0.012957760325971065, 0.02128680848712236
0.01286935234858593, 0.021232053200662567
0.012686149945436266, 0.021239568860224472
0.012369144156495988, 0.021311781614412963
0.011923809298601517, 0.021431293942366807
0.011376637676797844, 0.021575314612026286
0.01075860456734734, 0.021732785494243508
0.010099903696554686, 0.021918789996473346
0.009427634027790021, 0.022169944131453272
0.008763598951678879, 0.022517291286261266
0.0081233824852638, 0.02295621054614957
0.007517254430271106, 0.0234352221079204
0.006951272058532517, 0.02387383564745443
0.006428176179986208, 0.024206017429284236
0.005948162169484732, 0.02442578356428996
0.005509560999735238, 0.02462230628788679
0.005109451969172695, 0.024994146247089188
0.0047442272237032705, 0.025824170269436144
0.004410126198678244, 0.02739770344111766
0.004103691140048364, 0.029890135761476526
0.003821917977597623, 0.0333142377226181
0.0035622063085997352, 0.03755565573922509
0.0033223009261469046, 0.042440631149773395
0.0031002417588427873, 0.047788310681923574
0.0028943210584928465, 0.0534363552505821
0.002703046819453266, 0.05924857810064227
0.0025251115506681647, 0.06511440408137172
0.25983297900022767, 0.04855215687260886
0.2618241715380804, 0.04300044122296979
0.2625655198124983, 0.03781740892214947
0.2619315313109095, 0.03316097890511696
0.25980487381147443, 0.029194857652632612
0.25608214008166474, 0.026057522992995286
0.2506810725119944, 0.023811324467704422
0.24354925019271823, 0.022394994917336493
0.23467002778379276, 0.02163273952617571
0.22406150522561102, 0.021307525658468513
0.21177457989084647, 0.021226647585379173
0.19788820002046717, 0.021249032966467282
0.18250333235964583, 0.02128546297408823
0.16577081168945176, 0.021288827296308786
0.14796178842850286, 0.02124524019710451
0.12953848634224888, 0.02116032919655164
0.11113648937745825, 0.021050828197153468
0.09344522915672263, 0.020941872372617076
0.07708103930684262, 0.020858235597950754
0.06250696117069231, 0.020817535980170904
