flux,fluxerr
0.2805251838886919, 0.09031236380700089
0.2756752010891225, 0.08710427957724552
0.2698966972208222, 0.08416805854191522
0.2631889675363313, 0.08152813467791667
0.25556540354971685, 0.07920012571860226
0.24705633094480517, 0.07718893546225163
0.23771171764958524, 0.07548783851686666
0.22760114457901987, 0.07407964140507832
0.21681146671608728, 0.07293924502361608
0.2054445448731812, 0.07203619039715106
0.1936153040692333, 0.07133680800220882
0.18144947129379044, 0.07080609350891084
0.16907972468303262, 0.07040966562145949
0.15664116621222995, 0.07011521878019739
0.14426663744498322, 0.06989347310383126
0.13208175198216496, 0.06971904944751456
0.12020114397933264, 0.06957123331133926
0.1087265738162189, 0.06943460713382475
0.0977454438972608, 0.06929918916250646
0.08733035727453752, 0.06916037707400902
0.07753960567154322, 0.06901863781646564
0.06841754116446905, 0.06887856183007243
0.05999468271939191, 0.068747332874198
0.052287799305487215, 0.06863309253571041
0.045300574932182223, 0.06854401638227701
0.03902447329204266, 0.0684876629243479
0.03343968453942778, 0.06847032797053973
0.028516487204886875, 0.06849665955536749
0.024217144631985706, 0.0685697434575397
0.020498447908008102, 0.06869183259422758
0.017313750015946473, 0.06886524334887945
0.014614235768452936, 0.06909317918746795
0.012350137902740818, 0.06938035959983496
0.010472034485268084, 0.06973330451089309
0.008932087284812804, 0.07016006005219798
0.007685093635673993, 0.07066979959681538
0.006689448980695305, 0.07127225835008119
0.005907960757030856, 0.07197735227797232
0.005307863437616815, 0.07279607388855343
0.004860374052367149, 0.07374189382882189
0.004540265404809776, 0.07483177320438451
0.0043254849192246765, 0.07608640646388977
0.004196815048430096, 0.07752945940944515
0.004137571590839765, 0.07918572539825178
0.004133336650771992, 0.08107830113018823
0.004171723258186833, 0.08322506219647821
0.00424216394680823, 0.08563524744347502
0.004335703326768608, 0.08830808520514331
0.004444799892486488, 0.09123336103684081
0.004563148475418105, 0.09439279593984862
0.0046855223620843565, 0.09776183672041089
0.00480763306636075, 0.10131157038609338
0.004926005939142995, 0.10501054120535153
0.005037869975134663, 0.10882633041415864
0.005141060336698135, 0.11272683297220694
0.005233932259850418, 0.11668122186978547
0.0053152851390651755, 0.12066062586300169
0.29858540792900895, 0.0905877124776049
0.29341799473913766, 0.08716274405393938
0.2872787347356306, 0.08403721054999565
0.28016616467155936, 0.08123713065359742
0.2720930219619846, 0.0787786209057925
0.2630890748183167, 0.07666578414623833
0.25320384534481155, 0.07488974715060236
0.24250675987238712, 0.07343006344038634
0.23108513402961325, 0.07225770796987364
0.21904224887579338, 0.07133805460240698
0.20649576083905535, 0.0706333769640135
0.19357571670893198, 0.07010497974106822
0.1804207336270541, 0.06971533950066104
0.1671733955999644, 0.06942962572562886
0.15397535391328215, 0.06921662782103809
0.14096185663219873, 0.06904958219145736
0.12825749131587807, 0.06890688453830708
0.11597390348034961, 0.0687726797468684
0.1042079626403443, 0.06863693975786613
0.09304103139093055, 0.06849535570458253
0.08253921465958522, 0.06834897539936852
0.07275348990646369, 0.06820316031512454
0.06371955921520646, 0.06806591366340792
0.055457720488012424, 0.0679461043005247
0.04797351005818905, 0.06785247937076544
0.04125863721213734, 0.06779298035181967
0.03529203915840588, 0.06777406491880568
0.03004144161117622, 0.06780031161362202
0.02546553943840557, 0.0678745367928669
0.02151691454741974, 0.06799861215496256
0.018144371361008136, 0.06817446087809474
0.015294394606322223, 0.06840496901502012
0.012912530391535539, 0.06869467924011617
0.010944846119511221, 0.06905010575306449
0.009339312000495058, 0.06947944220069385
0.008046919403439943, 0.06999214420487714
0.007022667614713258, 0.07059834989957271
0.006226397608099284, 0.07130852859097943
0.005622787586485814, 0.07213454904737147
0.005180862918160416, 0.07309131104288792
0.004873525704553803, 0.07419793740997603
0.004677133570505366, 0.0754780841373531
0.004571123174383127, 0.0769590889921081
0.004537674377071016, 0.07866986321819072
0.004561411414173238, 0.08063764294710526
0.004629137738387749, 0.08288393322888955
0.004729598133864714, 0.08542057658609814
0.004853253534527057, 0.08824812037975927
0.004992071103896358, 0.09135639712570787
0.005139336394368983, 0.09472606294060129
0.0052894861206801945, 0.09833062944323359
0.005437959460816295, 0.10213864467156726
0.005581065997184068, 0.1061157591012883
0.005715868592277262, 0.11022651223558158
0.005840079657884102, 0.1144357655815891
0.005951969426381701, 0.11870977479717781
0.006050284968291061, 0.12301693482228755
0.31207406027434637, 0.09068172556580148
0.30681698685578396, 0.08708749166351014
0.3005508664546292, 0.08381438251684489
0.29327182416832975, 0.08088998306029337
0.28499013578841964, 0.07833102442475925
0.27573306431692524, 0.07614105801528828
0.26554762124955217, 0.07430943778967723
0.2545009418051353, 0.07281295300127727
0.24267866013115724, 0.07161923773458875
0.23018340607440924, 0.07069015208357363
0.21713365162579668, 0.06998459643501895
0.20366208621950038, 0.06946085584313587
0.1899118868082419, 0.06907888552521856
0.17603209087046015, 0.06880186870682836
0.1621725304241112, 0.0685970993899521
0.1484778887436617, 0.06843675395362155
0.13508293237980118, 0.06829855671813385
0.1221097940105587, 0.06816634171734279
0.10966573101026061, 0.06803008746500822
0.0978420322578419, 0.06788577816925903
0.08671394055602294, 0.06773500907744946
0.0763404499108304, 0.06758386129975107
0.06676380906654325, 0.06744109724931646
0.05800909757574871, 0.067316250051569
0.05008481073509907, 0.06721858093232244
0.04298385128197887, 0.06715636895186053
0.0366846830688891, 0.06713620271405908
0.031153090547443186, 0.067162574283926
0.02634464473085908, 0.06723802589471126
0.022207997601018298, 0.06736405421063438
0.01868753704465652, 0.06754220227315638
0.015725070378208927, 0.06777505072457626
0.013261405930499412, 0.06806696419821016
0.011238005477902185, 0.06842442020093588
0.009598535929978605, 0.06885567829423818
0.00829007687783261, 0.06937032383052683
0.0072641520486168955, 0.06997865707668673
0.00647759832059201, 0.07069136232353196
0.005892540877556097, 0.07152075667663069
0.005475849837298661, 0.07248267224866237
0.005198619319775715, 0.07359785504688156
0.0050357004719027345, 0.07489237221820692
0.004965283390965251, 0.07639670049990178
0.004968523370766819, 0.07814337837225956
0.005029207335526556, 0.08016335104829153
0.0051334567004120545, 0.08248139323700261
0.005269461246325082, 0.08511166744213132
0.005427233903750871, 0.08805584019000647
0.0055983866336404235, 0.09130368414413914
0.0057759302453054195, 0.09483478288087853
0.005954096193620556, 0.09862080507415326
0.006128178132765174, 0.10262794642532924
0.0062943912160074505, 0.10681923354903093
0.0064497473240164305, 0.11115650258374438
0.006591944579476154, 0.11560197194641664
0.006719269664807072, 0.12011940620321684
0.006830511604151351, 0.12467491409604117
0.3221643099464648, 0.09071149809640257
0.31702139619384967, 0.08697513490168736
0.3108335671367934, 0.08357781165261641
0.30359286256971996, 0.08054889203330318
0.2953053364319758, 0.07790597546139373
0.2859939267161292, 0.07565233136841029
0.2757012913683165, 0.07377580753603807
0.2644904615975105, 0.07225070159671138
0.2524436771237791, 0.07104160793209012
0.23966138537361822, 0.07010721077755075
0.22626161748179638, 0.06940339977828563
0.21237880732040515, 0.06888580265058397
0.1981601820142559, 0.06851219261773608
0.1837611231462373, 0.06824405870926972
0.16933993925965085, 0.06804742353410735
0.15505142893068874, 0.06789355334341733
0.14104155681106353, 0.06775958471251547
0.1274442300203588, 0.06762907693247562
0.1143785737578601, 0.06749202196786516
0.10194739692898609, 0.06734469542399274
0.09023670361959497, 0.06718924810781313
0.07931506883496392, 0.06703250335421243
0.06923269925201866, 0.06688401028282615
0.06002063137880566, 0.06675398527957845
0.05169123381319643, 0.06665221393842277
0.04423925741734599, 0.0665873167237427
0.037643091766175876, 0.06656600797017136
0.031866739622689384, 0.06659267658872345
0.026862591881024703, 0.06666956496437408
0.022575132067480675, 0.06679777111625909
0.018943954185109, 0.06697844643883143
0.01590572442626569, 0.0672138703644323
0.013396009394058522, 0.06750824437462648
0.011351159815296693, 0.0678680189496985
0.009710068027361579, 0.06830149469649391
0.00841549520649979, 0.06881829676810657
0.007415175838374306, 0.06942870415849353
0.0066627431403902026, 0.07014332482490486
0.006117677171944317, 0.0709745500934052
0.005744688754346866, 0.07193873598702367
0.005513130194729853, 0.07305785981143638
0.005396466761956455, 0.07436006671347696
0.0053718029995648295, 0.07587872278290393
0.005419458509765989, 0.07764982920556758
0.005522588342118294, 0.07970793731679712
0.005666843577033411, 0.08208100567110653
0.005840068260228278, 0.0847853997254605
0.006032029600351649, 0.08782374209713781
0.006234177927904315, 0.09118555414917393
0.006439433044339661, 0.09484915513546682
0.006641994254272441, 0.09878420710656055
0.00683717166723744, 0.10295444024590748
0.00702123658769855, 0.10732020797458258
0.007191289022773435, 0.1118406619947676
0.007345140528483412, 0.11647546224233415
0.007481210788784252, 0.12118602542295169
0.00759843647904988, 0.1259363666415709
0.32918757872587023, 0.09072045268253054
0.324335427699353, 0.08686334624440191
0.31840381144924185, 0.08335998896197681
0.31137921443782296, 0.08024177213146912
0.3032619268564686, 0.0775274355888832
0.29406897409152494, 0.07522023184221947
0.2838370621011798, 0.07330673993694391
0.27262355777418523, 0.07175898990667985
0.2605058477558752, 0.0705387788713115
0.24758091540754157, 0.06960189128426382
0.23396533339288914, 0.06890150691935003
0.2197946012769097, 0.06839089811492244
0.20521966918186255, 0.06802593775311325
0.19040227787035058, 0.06776665791234969
0.17550955771827334, 0.06757798152640593
0.16070706843626306, 0.06743036573912425
0.1461528732359518, 0.06730039958037533
0.13199374551129212, 0.06717136848049826
0.11836189603455277, 0.0670332593617135
0.1053729340841072, 0.0668826234885377
0.09312490447597409, 0.06672217325780665
0.08169717394398593, 0.06655950448996754
0.07114897508443307, 0.0664049930459249
0.06151816129981196, 0.06626956973945017
0.05282161097972364, 0.0661635647679929
0.04505634252865432, 0.06609595085277607
0.03820087962038273, 0.06607356595249207
0.0322174537543218, 0.06610067794725798
0.027055108802523726, 0.06617919954076147
0.02265384832234822, 0.06630980336484699
0.018948057904152164, 0.06649323983138748
0.015868793675975556, 0.06673150233054709
0.013345897332297076, 0.06702866569829354
0.011310142266410925, 0.0673911947072567
0.009695226172695687, 0.06782744391104115
0.008439247159168831, 0.06834702711049792
0.007485911425574269, 0.06896005270779167
0.006785537572260321, 0.06967678657692773
0.006294968605360281, 0.07050934037947117
0.005976859703415081, 0.07147420757571897
0.005798999009625691, 0.07259423527840937
0.005733698347933178, 0.07389935657141909
0.005757246692978461, 0.07542563358920563
0.00584941987133634, 0.07721243114639224
0.005993040556281832, 0.07929786956645257
0.0061735832003696105, 0.08171305909561509
0.006378822770116404, 0.08447648001799227
0.006598535901002406, 0.08759154778608601
0.006824244978511281, 0.09104731544620147
0.007048991611052132, 0.09482060176421668
0.007267135643893105, 0.09887884233152149
0.0074741770721497465, 0.10318312676225916
0.007666598468948726, 0.10769102283769645
0.007841725778432599, 0.11235895530334208
0.007997605534918741, 0.11714405213025021
0.008132896761292549, 0.12200547152425718
0.008246775973298873, 0.12690527822438405
0.33337454521058874, 0.0907165298670128
0.32898762975638635, 0.08675614901671058
0.32348877865148307, 0.08316142651524601
0.31685734696929957, 0.07996607606683909
0.30908617218393186, 0.07719027701937982
0.300184583466075, 0.07483753007012443
0.2901814878488026, 0.07289335276316673
0.2791267388085012, 0.07132767921538768
0.267091108542314, 0.07009969156848411
0.25416654729211025, 0.06916249292701813
0.24046691088123712, 0.0684668028496769
0.22612791705407728, 0.06796379517562798
0.21130381669120724, 0.06760768479976362
0.19616269677463483, 0.0673572482581447
0.1808808887063984, 0.0671764449902649
0.16563544914809522, 0.06703498822892895
0.1505975778153851, 0.06690892553171597
0.13592817840991372, 0.06678124089013271
0.12177395988857684, 0.06664187767878489
0.10826481996362253, 0.06648763854827588
0.09551233583790704, 0.06632180857368108
0.08360808501970707, 0.06615280261472906
0.0726215892468066, 0.06599188407154873
0.0625985524368629, 0.06585074723178778
0.053561148825001896, 0.06574030006153402
0.045509208598733836, 0.06566988592612429
0.03842169468756395, 0.06564646505135888
0.032259140134412556, 0.06567415968375119
0.026967098740698494, 0.0657545105942057
0.022480769853854998, 0.06588772578796734
0.018728873923937014, 0.06607413893594934
0.015636327656123637, 0.06631547693606137
0.01312669318776911, 0.06661574186041598
0.011124620360733683, 0.06698148287444607
0.009558106784521852, 0.06742115492214674
0.008360160090327928, 0.06794433947407899
0.007470150242883784, 0.0685608431982654
0.0068349240911056465, 0.06928032515534281
0.006408671547761916, 0.07011425402418218
0.006152088859335325, 0.07107886756617247
0.006031583456092226, 0.0721975299722208
0.006018560881257108, 0.07350170497612914
0.006088784852227434, 0.07503001645790358
0.006221802294158757, 0.07682517354217767
0.006400425891214147, 0.07892891556606468
0.006610267462910867, 0.08137554728744724
0.006839325148437557, 0.08418561866498162
0.007077650587114543, 0.08736317882052026
0.007317077722790295, 0.09089656632370538
0.007550984592013248, 0.09476081101214115
0.007774082618513025, 0.0989208375267484
0.007982230507049904, 0.1033348518926448
0.00817227011986284, 0.10795745890945316
0.008341881980554206, 0.11274225576969932
0.00848945828678283, 0.11764381542199256
0.00861399152703874, 0.12261908616359955
0.008714976990052956, 0.1276282931705123
0.33458041587905546, 0.09064122776482973
0.33078313156726014, 0.08660313168373815
0.3258485304643398, 0.08293898769109577
0.31974789878700455, 0.07968489155176944
0.3124655260543348, 0.07686260362920977
0.3040017927650889, 0.07447608537280065
0.29437640365442047, 0.07251006361804385
0.283630180582056, 0.07093270589179541
0.2718257122325284, 0.06970097054360731
0.2590483704692503, 0.06876571882446506
0.24540785720094296, 0.06807566644537585
0.23103885054897969, 0.0675803235614702
0.21609783182574863, 0.06723263013051645
0.20075833903147122, 0.06699041401664198
0.18520519002541766, 0.06681688620369136
0.16962643172279487, 0.06668113962934938
0.1542061138468719, 0.06655872649904032
0.139119183772846, 0.06643232120931597
0.12452693792125269, 0.06629178302853109
0.11057380315590341, 0.06613411573230155
0.09738525436716705, 0.06596313650806383
0.08506554129925353, 0.06578805443073704
0.07369500095792174, 0.06562100394366303
0.06332774811359217, 0.06547442379150564
0.053991832483992176, 0.0653597793401612
0.04569048426709429, 0.06528676622865041
0.03840368051569888, 0.06526244916227376
0.03209078041002185, 0.06529078566700003
0.026694285754932833, 0.06537292669785794
0.022144919868462037, 0.06550860963202658
0.018365960481456854, 0.06569776759974288
0.015276334012144744, 0.06594190431069626
0.012793420053349847, 0.06624501615097819
0.01083579539048794, 0.0666138128874763
0.009325769699738255, 0.06705690617554114
0.00819126454254833, 0.0675838482621724
0.007367354727831975, 0.0682040598929397
0.006797527445838467, 0.0689263988109112
0.0064335002045887955, 0.06976139749144857
0.006234241692743958, 0.070724679590446
0.006165044516151781, 0.07183974106294805
0.006196694351867245, 0.07313919920512449
0.0063047243629665755, 0.074663897272353
0.006468744681568076, 0.07645959457082956
0.00667183762296982, 0.07857140133938163
0.0069000102789643115, 0.0810365975523786
0.007141712602444882, 0.08387759114555897
0.007387469050406901, 0.08709886252053925
0.007629594404633815, 0.09068786431533589
0.007861946390102422, 0.09461771982180052
0.00807970764997363, 0.0988507954118236
0.008279193896424316, 0.10334244325096623
0.00845768538221544, 0.10804440932460689
0.00861327913007589, 0.11290763255951669
0.008744759620628163, 0.11788435251953334
0.008851485877340205, 0.12292956806415768
0.008933293101313931, 0.12800195156911495
0.33328847675900514, 0.09043331836649389
0.3301119485259024, 0.08634926662215354
0.32578418637141393, 0.08264348734325769
0.32026860552700054, 0.07935415392209244
0.3135409929808224, 0.07650448083992586
0.3055926440503916, 0.07409897655623224
0.2964337132365711, 0.07212188470019498
0.2860954180355457, 0.07054009834373859
0.2746313667504522, 0.06930896128151562
0.2621193330357287, 0.06837774808969106
0.24866362311080747, 0.06769381039373094
0.23439641323845456, 0.06720557288607393
0.21947473392056027, 0.06686518554465445
0.20407567898020082, 0.06662990749845091
0.1883904858000099, 0.06646248019199234
0.1726160645284854, 0.06633156401659808
0.15694723389276505, 0.06621232401231124
0.14157101763980268, 0.06608716413692575
0.12666150748180502, 0.06594584181921018
0.11237609402372732, 0.06578549753905877
0.09885285405169247, 0.06561037895874577
0.08620772936521608, 0.0654303643308163
0.07453125797056259, 0.06525832902533954
0.06388575645596846, 0.06510733921753205
0.05430533701478085, 0.06498932307280272
0.04579717846534256, 0.06491426188366935
0.038343129939596335, 0.0648892909156974
0.0319024561975732, 0.06491820306712995
0.026415807399758233, 0.06500178978810799
0.021810651309774703, 0.06513936816062743
0.018006000359107877, 0.06533053009396149
0.014915905842078912, 0.06557661505974931
0.012452594658872957, 0.06588166536065716
0.010529480617789381, 0.06625259146742658
0.009063948037258901, 0.06669818990002327
0.007979457169273552, 0.06722799691089383
0.007207305554446737, 0.0678510399425656
0.00668805675841153, 0.06857533548594241
0.00637132095209064, 0.06941037834396817
0.0062146401515079, 0.07037098036564322
0.00618243554221562, 0.0714804487557616
0.006245065468358531, 0.0727721016819479
0.006377980665049268, 0.07428843201608666
0.006560964464498446, 0.07607760521206645
0.00677744672042657, 0.07818745187914551
0.007013881405852782, 0.08065765411621668
0.007259200834553276, 0.08351206382181582
0.007504415523797326, 0.08675538246121137
0.007742319712257595, 0.09037417421614723
0.007967237150544017, 0.09433983972059906
0.00817479784546825, 0.0986125200959931
0.008361742323883432, 0.10314515163950395
0.008525750342003424, 0.10788712131097371
0.008665291287874586, 0.11278723435874571
0.008779493814338513, 0.11779591785488137
0.00886803250037108, 0.12286671853922249
0.008931029573046515, 0.12795721727006834
0.3298720036323362, 0.09006572955646533
0.3273312711796106, 0.08596864233561961
0.3236385152842163, 0.08225018890473823
0.3187497451004084, 0.07895016247393524
0.3126325176542514, 0.07609299180932785
0.3052690742480293, 0.07368376955078242
0.2966597581488082, 0.07170658809442658
0.28682560514303845, 0.07012763458336506
0.275810347410098, 0.06890133675748246
0.26368294095807177, 0.06797611028809412
0.2505407426610923, 0.06729862661079393
0.23651153354464569, 0.06681682095184538
0.22175067902597678, 0.06648253548643197
0.20643632526035974, 0.06625282967313667
0.19076341067186636, 0.06609024985016991
0.17493493266041327, 0.06596322038224789
0.15915379211772415, 0.06584664789701482
0.14361658678152694, 0.06572272894210103
0.12850797206745118, 0.06558112094287999
0.11399640886819179, 0.06541904244386339
0.10023107166984678, 0.06524105391360874
0.08733853684218694, 0.06505754211918016
0.07541899946335458, 0.06488195067504957
0.06454299977401305, 0.06472782124630488
0.054751276832141836, 0.06460742592758392
0.04605600472642767, 0.06453095131002208
0.038442352798439515, 0.06450556870425948
0.03187121518169259, 0.0645349205439279
0.026283248556528686, 0.06461949438159544
