flux,fluxerr
0.19855865052296034, 0.019058994398223866
0.1921633855022878, 0.01652247967014901
0.18508918118541764, 0.014349530980050691
0.17736024538493714, 0.012595307893931174
0.16901399526259234, 0.011291822632740279
0.16010326714953976, 0.010424438405920534
0.15069868747774817, 0.009919047474481923
0.14088922418625166, 0.009659662278560929
0.13077881299904232, 0.009529488623223724
0.12048193979995557, 0.009442987122673885
0.1101193756473593, 0.009355441958027236
0.09981402775312605, 0.00925617293161346
0.08968683883141809, 0.009154349341719806
0.07985314171650885, 0.009063641888904758
0.07042349745279536, 0.00899205930960087
0.06151023734551357, 0.008938921029956774
0.053233228994215676, 0.008895691805489806
0.04571415527301978, 0.008851319844817266
0.03906043016798309, 0.008799087735949892
0.03334759765602382, 0.00873973638506835
0.028601284638557253, 0.008679733888740023
0.024783244776186004, 0.008626740172898465
0.0217984270348007, 0.008586679836067233
0.01951550380916093, 0.008563051886444642
0.017785505626783868, 0.008558165006158743
0.016458545881822405, 0.008573583980199017
0.0153986407732102, 0.00860843889021131
0.014493018859808861, 0.00865817783036765
0.013656620323466227, 0.008714318211814995
0.012830491599478034, 0.008766148315588158
0.011977884687099198, 0.008802514930650658
0.0110803986522944, 0.008814054192829504
0.010134073458002954, 0.008797256225065657
0.009145601200926766, 0.008756825513167015
0.008128691173906992, 0.008704258267963231
0.007100485488506219, 0.008653216023932864
0.006077403638317023, 0.00861527954800693
0.005070430060870965, 0.008598533360455483
0.004083693586606709, 0.008608428453793898
0.00311749742423849, 0.008649551545515775
0.0021721722124792326, 0.008725238735857302
0.0012520869822545222, 0.00883676123030782
0.00036918237399658583, 0.008983231189251404
-0.0004573250931801969, 0.009162785700848126
-0.001204472900546435, 0.009373603322158698
-0.0018494121238181354, 0.009611474153414309
-0.002373263514314227, 0.009864259707556394
-0.0027643368608637566, 0.010107281601596886
-0.0030185763359145018, 0.010306788962688596
-0.0031383195409360382, 0.010430076293037946
-0.0031310193387063183, 0.010457331361024596
-0.0030080478257973656, 0.010393825918668591
-0.002783564978065941, 0.010282196412744221
-0.0024734351034663353, 0.01021291999262149
-0.00209417471622823, 0.010325189709585214
-0.0016619157759699512, 0.010783238958514513
-0.001191400353149667, 0.011722367944025569
0.18737726870710875, 0.018843205917784194
0.18302095874208915, 0.01633365502034757
0.17794926723461205, 0.014175345822709535
0.17216390673979165, 0.012430466628323611
0.16567803373392884, 0.011138061357142728
0.15851855992895897, 0.010287614488459933
0.1507287015007812, 0.009803607686832503
0.14236919579297874, 0.00956429965928186
0.13351651220232658, 0.009447333442582894
0.12426037173020207, 0.009364901572919306
0.11470153934600383, 0.009273647200952823
0.10494986759936732, 0.009166688643973192
0.09512254721657132, 0.009057645627827257
0.08534282815924343, 0.008963389444696192
0.07574180951098528, 0.008892858753835553
0.06646409273531827, 0.008844226490782554
0.05767216142942221, 0.008806428882960014
0.04953741073800516, 0.008765821672629622
0.04221909289825618, 0.008714392860202631
0.03584150848962502, 0.008653284849194176
0.03047060677521176, 0.008590394091273733
0.02609536706760807, 0.008534681330363704
0.022634295393556537, 0.008492653246182593
0.01995836714388172, 0.00846777177586282
0.01791333539688527, 0.008462293246278377
0.016340701885306154, 0.008478075106698076
0.015096158093553825, 0.008514612989283871
0.01406058881921953, 0.008567448023891483
0.01314476769109324, 0.00862767163576979
0.012286310518917432, 0.008683727349456624
0.011443759643471179, 0.008723289125553424
0.010591649541838406, 0.00873573521416851
0.00971732792423972, 0.008716986373894028
0.008818436984576055, 0.008672375780364968
0.007900584222643043, 0.008614958980903292
0.0069750157545909516, 0.008559954896195722
0.00605478213628659, 0.008519714634898333
0.0051489806283645, 0.008502209852715626
0.004260386505721408, 0.008512310478043295
0.0033880412549512785, 0.00855409661293653
0.0025308006216772693, 0.008630466904379193
0.0016913629394772912, 0.008742232735360934
0.0008801030602173158, 0.008888205752503108
0.00011492715697409951, 0.009066951812231052
-0.000582263250512641, 0.009278294391144247
-0.0011894433964587591, 0.009520365892295449
-0.0016883311792813326, 0.009782517167232864
-0.0020676163686006157, 0.010039108083515595
-0.0023233973051280856, 0.010253004463497188
-0.0024579282063192293, 0.010387016659465847
-0.002478344063055249, 0.01041713809122138
-0.002395480679534211, 0.010345827486373351
-0.00222276915395345, 0.010215197691854198
-0.001975184945060285, 0.010118404187446231
-0.0016682323291581916, 0.010201009665358649
-0.0013169454972087884, 0.010635559674459756
-0.0009349196477928014, 0.011562201571988898
0.1715241745887864, 0.01892837358598891
0.16968906132354958, 0.01630517478086593
0.1671038942349083, 0.014031985601177807
0.16373953137998554, 0.012193244120962506
0.15957619690679023, 0.010850461630936996
0.1546062032604547, 0.010003716728747206
0.148837079193679, 0.009564926644072764
0.14229376528773047, 0.009382438646967882
0.13501844538877636, 0.009306479543299584
0.127070062544274, 0.009236665865134705
0.11852438676382407, 0.009132105054807325
0.10947464562126664, 0.008998105221068206
0.1000327156207964, 0.008863309220566131
0.09033105833649208, 0.008755461204684867
0.08052694609809946, 0.00868654655247221
0.07080948468614455, 0.008650735026906125
0.061404598782260185, 0.008628442517603129
0.05256085839921402, 0.008597573709317973
0.044517892421165765, 0.008546321711092614
0.03747233321848133, 0.008477817253123656
0.031542768517964455, 0.008405143579892905
0.026741358427894078, 0.008341482908699783
0.0229818134653853, 0.008294626099249225
0.020111385142908327, 0.008267020236780564
0.01794306432399241, 0.008260060212809879
0.01628652046244515, 0.008276354351379004
0.014974805677312164, 0.008316809467018042
0.013878401407353984, 0.008377736945050214
0.012909003496331015, 0.008449372856059761
0.01201132178118952, 0.008517883363175459
0.011150555618168403, 0.008567360676143585
0.01030333738200535, 0.008582991108112614
0.009455147531920208, 0.00855861394244367
0.008599773984717297, 0.00850147346827689
0.007739009763339959, 0.00842967028767317
0.006882233544123414, 0.008363381057290861
0.006042585466910913, 0.008317180276595896
0.005228536911822888, 0.00829838635076734
0.00443985043226068, 0.008309955847377015
0.003670544750338103, 0.008354651166188538
0.0029132484661000013, 0.008434322631713712
0.0021646458448470298, 0.00854833590647184
0.0014311097234020495, 0.008694194013389677
0.0007290221351169718, 0.008871544097706217
8.053497412685599e-05, 0.009085814475806015
-0.0004910863280693067, 0.009343641652542832
-0.0009660900610262731, 0.009640073254980622
-0.0013321091406322512, 0.00994629970025714
-0.0015847148382914674, 0.010213140023884938
-0.0017259808472905617, 0.010387322382787815
-0.0017630494582651253, 0.01042978079403395
-0.001706833883731488, 0.010332919268365492
-0.0015708258867430942, 0.010137493739543941
-0.0013699795250777472, 0.009948604488749912
-0.0011196430729733483, 0.009941123087176283
-0.0008345120037262267, 0.010328973835520047
-0.0005276120534274644, 0.011281929944832741
0.15152179209228228, 0.019261206418934404
0.1524089154065503, 0.016375284625788147
0.1525718074483608, 0.013835627961855798
0.15194234763597997, 0.01177104587930211
0.15045756168801025, 0.010295627833446824
0.14806284601546993, 0.009440680076396117
0.14471590240982027, 0.009091767479376761
0.14039020717512884, 0.009025436290133942
0.13507675270898312, 0.009028714445853852
0.1287860584433254, 0.008975518482014652
0.12155134942181414, 0.00883323702350399
0.11343301807433297, 0.008635960697501588
0.10452449604960667, 0.008446143250210864
0.09495975768001937, 0.00831413055323574
0.08492317007085058, 0.008255379998725337
0.07466207339787105, 0.008252014161012136
0.06449625153337771, 0.008263684877421407
0.05479510814841742, 0.00824969957168867
0.04592535430225441, 0.00819227827290908
0.038194705596706575, 0.008102726583245606
0.03179359077371903, 0.008008675349171313
0.02674748701816901, 0.007932844969162712
0.022930647827419617, 0.007883055360572166
0.020120158600143427, 0.007855468314003956
0.018050140503302947, 0.00784685702251452
0.016463889021084577, 0.007861229664144456
0.015157632702584854, 0.007903942331630637
0.01399847612364138, 0.007974980050754615
0.012922606064804065, 0.008064693874684562
0.011911896438624062, 0.008156078294665923
0.010962958879574306, 0.008226145808328414
0.01006692376350362, 0.008249981871442031
0.00920954714542083, 0.008215595327730786
0.008377208534677758, 0.008134151501022226
0.0075630717471191775, 0.008035382718117056
0.006772697482206112, 0.007950215799271531
0.006020981693663067, 0.00789648950089954
0.005317030399365934, 0.0078781277335695
0.004655755293251271, 0.00789345228291222
0.004021549707155204, 0.00794415611756505
0.0033944010728660674, 0.008031766378565073
0.00275874754491155, 0.008151973219749293
0.0021136042135971272, 0.008295761917588516
0.0014739981965425483, 0.008460912221261737
0.0008648872719214454, 0.008664532138567348
0.00031449193385637815, 0.008936665064434112
-0.00015225649585502525, 0.009291933829959874
-0.0005191945124767431, 0.009698762296400319
-0.0007797701830265867, 0.010081851207647125
-0.0009351426003568542, 0.010351704359983092
-0.0009923387419688318, 0.010435532184591851
-0.000962643042076388, 0.010302566837308479
-0.0008601642762587978, 0.009987548096829762
-0.0007005284627320076, 0.009616879728231635
-0.0004996495013956455, 0.00942764363215061
-0.0002725312007710849, 0.009730856326834802
-3.210015502989418e-05, 0.010765910457740845
0.13026322541170068, 0.01977635438585999
0.13349846573381938, 0.016527624783193858
0.13612714163824427, 0.013592806532368691
0.13804392409432484, 0.011163617538425957
0.13914151495099314, 0.009451763557633984
0.1393140583297073, 0.008571413427569561
0.13846169048645784, 0.00837423641904911
0.13649510367251677, 0.00849844700221092
0.1333389214831041, 0.008618171487406512
0.12893618956729633, 0.008571672499315097
0.12325514000928879, 0.00834852170487174
0.11629860291822237, 0.008036701556000399
0.10811651718927529, 0.007758199764505908
0.09882211580802894, 0.007597939649312317
0.08861255262952304, 0.007568894422972667
0.07779478609476309, 0.007626877237257572
0.06680745265883932, 0.00769411654165312
0.056185837809191896, 0.007698944315212
0.04647468202210485, 0.007617802975513922
0.0381344275741308, 0.007483347631547664
0.03144335114865839, 0.007354440578988336
0.026416999693157455, 0.007269683519357766
0.022835417691200816, 0.007229855173053832
0.020340199033501073, 0.007211891886462735
0.01852905808328736, 0.00720110744073311
0.017045912958691765, 0.007206030417885339
0.01565429967440186, 0.007242755855844786
0.014256735822182167, 0.007319740294452525
0.012875104490752538, 0.007429551272081306
0.011591028122610206, 0.0075533523522179815
0.010472440575134424, 0.007658144127068625
0.00952933127685222, 0.007698903831911512
0.00872560901173788, 0.0076501348655402
0.008006136867941067, 0.007530148010531276
0.007323209843883143, 0.007392234700152824
0.0066612123519007764, 0.0072866079517444155
0.006037658051723518, 0.007231463497591567
0.005470727598800729, 0.007217762310953389
0.004957762979110746, 0.0072340880254772736
0.004477039368274175, 0.007287496834352379
0.003994413605125353, 0.007388376449908882
0.003477657651878815, 0.00752805632018216
0.002915844582080723, 0.007676612574215934
0.0023235372096239337, 0.00781374077015389
0.0017316405740058095, 0.007970347780540994
0.0011774050677629227, 0.008227383266315858
0.0006947643621129936, 0.008652791344976285
0.0003062930028916383, 0.00921994880456034
2.199160420404915e-05, 0.00980551533501082
-0.0001579553542645961, 0.010253175406220507
-0.0002406097064141877, 0.010431534170733447
-0.00023813055639166234, 0.010270153388042184
-0.00016593981913906751, 0.009788634919611775
-4.110674891644159e-05, 0.009137378701338452
0.00011913654539654592, 0.008650602748328517
0.0002988318875062355, 0.00882165119603204
0.00048470481335107104, 0.010019269840110251
0.10840000637731242, 0.020626894896182857
0.11347659840444997, 0.016883692331802945
0.11813448027217438, 0.013350686860791168
0.12223796864274758, 0.01029231828333775
0.1256410984956877, 0.008098124132275827
0.12819171478949606, 0.007132682321200076
0.1297376033077122, 0.007231850225492706
0.13013176517941008, 0.007703194639407719
0.1292336874628914, 0.007996720522004057
0.12691224460898703, 0.007914549951065943
0.12305294520693683, 0.007509110916007571
0.11757029130994871, 0.006979445920171343
0.1104262722327597, 0.006559594929274387
0.1016572045615792, 0.006377054709692848
0.09141794720302927, 0.006412406496352551
0.08004845178022163, 0.006575228139447258
0.06813712779264922, 0.006732640611562988
0.05646978169317815, 0.006758209264677657
0.04587371397752224, 0.006617720724640928
0.03705044409182016, 0.006391756521641262
0.030399282430336128, 0.0062086002038444325
0.02587088729466321, 0.00613212351913817
0.02302856816141945, 0.006132828141913542
0.021240626317243987, 0.006138094554029056
0.019856028862801127, 0.00611527979208779
0.018367362270624955, 0.006094909506649239
0.016540339209158168, 0.006115484893678801
0.014425011450838734, 0.006192778257605167
0.012285816977868022, 0.0063189412411326735
0.010451307807618564, 0.006485926559960092
0.009135205962667824, 0.006656587357568134
0.008336845997369438, 0.006739067643981806
0.007898012735030338, 0.006666869593165001
0.007598939652761729, 0.006471668845271289
0.00725072336404179, 0.006267002892175399
0.0067825687726459916, 0.006148167672974259
0.006252940362633708, 0.00612006030109161
0.005750770055055394, 0.006125440977076943
0.005323297826501029, 0.006123893890507398
0.004966836374751802, 0.006151487685998017
0.004630580186124211, 0.006267675553315022
0.0042458781176425734, 0.0064716612209108565
0.003775000073016075, 0.006672934072500178
0.0032259328877343105, 0.006771439710077168
0.002636887629116789, 0.006794860154629439
0.0020592717407563054, 0.006944895279155965
0.0015417297508061643, 0.007455038263280805
0.0011170083913046001, 0.00832836162262788
0.0008000290992400459, 0.00931972000726016
0.0005923279576410592, 0.010127120406547141
0.00048598868963359933, 0.010513742734852458
0.00046674753018026877, 0.010344996026208569
0.0005164970306977908, 0.009609284012414709
0.0006153856361803745, 0.008472296738820813
0.0007436889843352115, 0.007414495391513227
0.0008836166114643349, 0.007339251273610027
0.0010211222379196126, 0.008917057078245163
0.08796142978529732, 0.02423700608299587
0.09466641925683605, 0.019443557212580547
0.1010001890481369, 0.014430142903442179
0.10674459360190888, 0.009439851594493065
0.11167931623815704, 0.004981809838905405
0.11561241073676463, 0.002970888553865396
0.11842713168123749, 0.004767898638148163
0.12010293573999307, 0.006499420223705165
0.1206617995753645, 0.00703939554269361
0.12010646909269308, 0.0063843523250258355
0.11837381226453592, 0.004919364122163128
0.11529771747769167, 0.003414235198750332
0.11057680953429284, 0.00284277994207315
0.10376090223368663, 0.0029218848197198606
0.09440734333600405, 0.0028660306287236737
0.08247611104853333, 0.00309658967923912
0.06874675406402675, 0.003695542576413038
0.05475453371669651, 0.003945287337912473
0.042296209207833724, 0.003566196330373111
0.032912521474842804, 0.002945868026328911
0.027333948679324482, 0.00267397621597774
0.025028608468245114, 0.002710610790573856
0.024593233702758822, 0.0028675567023620035
0.02458392401001937, 0.002902035735300133
0.02387798538189793, 0.0027442136331562016
0.02177039131803112, 0.002664266929044664
0.018100975939605784, 0.002728046810315244
0.013422573821518229, 0.002872181573907506
0.009001635244433752, 0.0028541382964920063
0.006221161981247408, 0.002911762056544558
0.0057368652608729065, 0.0034487966394241088
0.007046195241166029, 0.003915819792844361
0.0089146541461509, 0.0037860827258734482
0.009995017182083715, 0.0031877861623205617
0.009435339563984147, 0.0027311007293572293
0.0074860364898558665, 0.00267212379174016
0.005389056605182033, 0.0027934760500651456
0.004199117181794798, 0.002910334355994802
0.004122806671676478, 0.002816963932458182
0.004788906909576859, 0.00268356703536699
0.005620617591427384, 0.002712329985769573
0.006109502858183504, 0.0031946601131369458
0.005999968010627275, 0.003989491691398578
0.005307181344675106, 0.004334850542718678
0.004211842133582015, 0.003807957329333018
0.002963302615635362, 0.0029582923396279746
0.0017954128227876869, 0.0038862068223475144
0.0008595086368049636, 0.006481923512383619
0.00021986354165126672, 0.009203477580934679
-0.00011786946508785303, 0.011312303274164829
-0.0001845403400502735, 0.012410361068167336
-3.227626883623296e-05, 0.012275964415567005
0.00027610452857320674, 0.010831126302275887
0.0006748152848252566, 0.00815570608930306
0.0011014301581381753, 0.004664501118144327
0.0015031335503485359, 0.003218005658108593
0.0018436676732915993, 0.007304207372714764
0.07269703877178145, 0.02305186379265479
0.07932858765013143, 0.018501667732909843
0.08586878786870429, 0.013684163847067799
0.09213534310461859, 0.008805698194853091
0.09792843874325166, 0.004256710307586217
0.10304997663705627, 0.0019366148976833048
0.10733540605139366, 0.004169055701189432
0.11066801544743435, 0.005985914743971067
0.11294068936501735, 0.006491498413813242
0.11401503605875439, 0.005743729650157946
0.11369630833414485, 0.004123167366093974
0.11172228811216885, 0.0024019825970302013
0.10776605301455801, 0.0018751021367705784
0.10146367247449015, 0.0021032170324268816
0.09254903904601429, 0.0019042598466362782
0.08114034494491477, 0.0020982861209358668
0.06805174398990774, 0.0028528313604828655
0.05472041171624573, 0.0031335403985763774
0.04278554544845804, 0.002661220687446508
0.033650857532117925, 0.0019572353605167405
0.028011028193588562, 0.0017548022883243013
0.025454086806613038, 0.0017828309860297795
0.024768641555484784, 0.0019386569458347677
0.024624599285511365, 0.0019897334592171214
0.023898034032886217, 0.0018093400481133187
0.021798018702216215, 0.0017499441912076186
0.018044554266961055, 0.0017950306871463322
0.01315836002285156, 0.0019833006454241285
0.008552528911055356, 0.0019408149970520103
0.005822809776323363, 0.0018943822556976827
0.005708524146228001, 0.0025323574625952124
0.007561954229344865, 0.0030816297160394155
0.009874817414126809, 0.0029118568052923493
0.011041764749859663, 0.002214411324377251
0.010115899994106071, 0.0017754587321492435
0.007570375597507684, 0.001762855516698689
0.005097845478460811, 0.0018551796755078218
0.003977205102087797, 0.001991471401085281
0.004234568555541983, 0.0018767239239001821
0.005188251454595602, 0.001772426325052191
0.006123605705174033, 0.0017642296642223637
0.006606401128075627, 0.002200385764629648
0.006485494976411071, 0.003128858965528177
0.005823970128870189, 0.003609173836164788
0.004806275982641463, 0.0030831640226624693
0.003661185469446301, 0.0019507164419083631
0.002594843342612017, 0.0030062567167528395
0.0017373726457461222, 0.0058282169954955755
0.0011417820407702347, 0.008627285394977606
0.000810025254325842, 0.010765868340489386
0.000712820166782117, 0.011882318557378967
0.0008030575133088627, 0.01176727820442453
0.0010249565130191099, 0.010341878157579098
0.0013206545298841798, 0.007662157555608382
0.0016356239452173804, 0.004013038586506054
0.0019241667408889526, 0.002240985158813281
0.0021557404997154285, 0.0067016140204404955
0.05877547221548342, 0.021420525758567396
0.06506287114424406, 0.01719884784474961
0.07150752926909647, 0.012700353523489725
0.07797437863786676, 0.008103586094319446
0.08429773506039429, 0.0037100511757730287
0.09028661448416356, 0.0011765452859891007
0.09573674109701949, 0.003691018652125002
0.10043551703417698, 0.005468358962222303
0.10414425756118244, 0.005930964916387599
0.10658365338644439, 0.005166821611682104
