flux,fluxerr
0.07689764998477797, 0.07034067076796581
0.07662052382074776, 0.06987808347310412
0.07626919007187817, 0.06943466647750925
0.07584361388852394, 0.06901134204528224
0.07534421559941003, 0.06860890225170665
0.0747718396069383, 0.06822801925869848
0.07412770880075012, 0.06786925861756649
0.07341338299188953, 0.06753309064205516
0.07263072156720361, 0.06721989951265434
0.07178185008066018, 0.06692999002051642
0.07086913051950078, 0.06666359199970875
0.06989513500313936, 0.06642086264180173
0.06886262261951638, 0.06620188705975408
0.06777451493360061, 0.06600667946265351
0.0666338566447487, 0.06583519092271241
0.06544376593934924, 0.06568732195246998
0.06420737992641208, 0.0655629395610158
0.0629277994897032, 0.06546189360575884
0.06160805056924428, 0.06538403149949182
0.06025107707272525, 0.06532921377838836
0.05885974403767674, 0.0652973249153515
0.0574368417760743, 0.06528827702939595
0.055985093182942515, 0.06530200705593757
0.05450718338544698, 0.06533847188304882
0.05300582043662753, 0.06539764350852506
0.051483830111311364, 0.06547950450210084
0.04994427738475973, 0.06558404258026987
0.048390555429868844, 0.06571124182135736
0.04682632903448568, 0.06586107544648896
0.045255407395465116, 0.0660335004154344
0.04368165992067895, 0.06622845566127972
0.042108955577408236, 0.0664458601437035
0.04054110394308791, 0.06668560724764763
0.03898179743830481, 0.0669475555547783
0.037434568841694674, 0.06723152111195876
0.03590277464340843, 0.06753727587555688
0.03438958435637052, 0.06786454627037498
0.0328979688837983, 0.06821300937262924
0.03143068767207469, 0.06858228645293477
0.02999027449974985, 0.06897193379693528
0.028579021747700873, 0.06938143086193872
0.02719896298892553, 0.06981016596020094
0.02585185392532986, 0.07025741988409567
0.024539159559024415, 0.07072235245212198
0.02326206703594187, 0.07120400432277231
0.022021510823030586, 0.07170130840571338
0.020818196762641992, 0.0722131034008853
0.019652624292600316, 0.07273814847094669
0.018525106957117798, 0.0732751385378894
0.01743579132576467, 0.07382271974776386
0.0163846744302099, 0.07437950470937167
0.015371619821410174, 0.0749440871786953
0.014396372343314786, 0.07551505592690927
0.01345857171295475, 0.0760910075931249
0.012557764990957518, 0.0766705583814668
0.011693418021067877, 0.07725235451429668
0.010864925912125288, 0.07783508139864503
0.07381992243329115, 0.0681155103641603
0.07361052153147336, 0.06777543865744662
0.0733432733108334, 0.06744822141115989
0.07301801480131008, 0.06713454141701969
0.072634861019992, 0.06683502442415455
0.07219419144046244, 0.06655024186537656
0.07169662901312156, 0.06628071473499829
0.07114302131868551, 0.06602691667042385
0.07053442400190037, 0.06578927613260718
0.06987208638191941, 0.065568177665904
0.06915743914536583, 0.06536396225783918
0.06839208403731259, 0.06517692686027471
0.06757778542359866, 0.0650073231871202
0.06671646066018234, 0.06485535675022702
0.06581015982861202, 0.06472118869069268
0.06486103795783878, 0.06460493968578689
0.06387132323563936, 0.06450669586795196
0.06284328441068603, 0.06442651456883258
0.06177920589148172, 0.06436442954120163
0.060681377275902344, 0.0643204568259899
0.05955208784960957, 0.06429459883588046
0.05839362192526298, 0.06428684563077453
0.05720825606173584, 0.06429717361501591
0.055998267511549814, 0.06432554362256643
0.0547659580005081, 0.06437189925773479
0.053513693714314615, 0.06443616557253114
0.05224395784776326, 0.06451824751418177
0.05095938804451999, 0.06461802701137784
0.049662745978900996, 0.06473536084480112
0.048356854167012894, 0.06487007936915569
0.04704455333833022, 0.06502198685740655
0.04572867104881006, 0.06519086179879853
0.04441199113745573, 0.0653764556704891
0.043097223769080276, 0.06557849022496658
0.041786982419258226, 0.06579665547824493
0.040483772553865136, 0.06603061035627185
0.03918998303660232, 0.06627998341738485
0.03790787713879698, 0.0665443726290284
0.036639583012019854, 0.06682334411504198
0.03538708353946881, 0.06711642984759461
0.0341522054800768, 0.06742312429808939
0.03293660781696173, 0.06774288009954563
0.03174176933423035, 0.06807510285070599
0.03056898005762712, 0.06841914701104825
0.02941934796412933, 0.0687743177664616
0.028293813125502276, 0.06913987653885198
0.027193161373195628, 0.06951504716773103
0.026118037047697933, 0.06989902241135648
0.025068954887827535, 0.07029097060675661
0.024046311112296596, 0.0706900423434457
0.02305039374289564, 0.07109537702343345
0.02208139221582213, 0.0715061091990916
0.02113940632500557, 0.07192137459962276
0.020224454538759817, 0.07234031577554506
0.019336481728706504, 0.07276208730821127
0.018475366347661507, 0.07318586054753919
0.017640927091045314, 0.07361082785559125
0.07818852144244937, 0.06753856739346008
0.077936409249388, 0.0671648749164979
0.07762033254611624, 0.06680580530859574
0.0772401323709856, 0.06646208734148362
0.07679596633912548, 0.06613437730710796
0.07628829363188984, 0.06582326312704763
0.075717851565325, 0.06552926997066358
0.07508563464815039, 0.06525286492709653
0.07439287629558285, 0.06499446059120892
0.07364103308050489, 0.06475441753376679
0.07283177141490284, 0.06453304567997287
0.07196695656549865, 0.06433060467572524
0.07104864384949754, 0.06414730339152691
0.07007906787841284, 0.063983299750253
0.06906061709347407, 0.06383870399666808
0.06799579817316022, 0.06371358449469772
0.06688719585799811, 0.06360797593001727
0.06573743192423119, 0.06352188722061594
0.06454913362930433, 0.06345530868129726
0.06332492002175842, 0.063408219824278
0.06206739428565075, 0.06338059483304716
0.06077913695613698, 0.06337240446152996
0.05946270136987333, 0.0633836146387376
0.058120623572131595, 0.06341418415737972
0.056755451889033574, 0.06346406250434801
0.055369796480909436, 0.0635331879456229
0.053966394249892954, 0.06362148519720066
0.05254815597303193, 0.0637288613326698
0.051118133538025454, 0.06385520253822402
0.0496794484814206, 0.06400037182167831
0.04823524438284447, 0.0641642086340654
0.04678865231434561, 0.06434652839139426
0.045342757251711635, 0.0645471200960154
0.04390056509749789, 0.06476574210608647
0.042464976967260315, 0.06500211874048045
0.041038775708878907, 0.06525594014645865
0.03962461523124134, 0.06552686227526099
0.03822500934762867, 0.06581450570519638
0.036842319972292877, 0.06611845320366154
0.03547874456647499, 0.0664382459952988
0.034136302727583605, 0.06677337875782619
0.032816821812266334, 0.06712329341845746
0.031521921620041166, 0.06748737192422338
0.030253003747740915, 0.06786493044658434
0.02901125942263926, 0.06825522117412126
0.027797686328011263, 0.06865743879788222
0.026613104842185153, 0.06907072795113976
0.025458173163952495, 0.06949419114274671
0.02433340139319444, 0.0699268969642195
0.02323916463160195, 0.07036788837142963
0.022175715164600183, 0.07081619086597118
0.02114319378202022, 0.07127082042722141
0.02014164029169903, 0.07173079107246072
0.01917100327701026, 0.07219512194809938
0.018231149146329423, 0.07266284387926779
0.017321870519606385, 0.07313300532720823
0.01644289399454474, 0.07360467772369787
0.08212160686642694, 0.06697133305423802
0.08183336313903379, 0.06656662415527131
0.08147533135184765, 0.06617829178433865
0.08104733110680756, 0.0658071022707124
0.08054953396125306, 0.06545373258831834
0.07998244770762775, 0.06511877605473146
0.07934689146437293, 0.06480274993862598
0.07864397362053205, 0.0645061019627172
0.07787507281982517, 0.06422921552047972
0.07704182185640175, 0.06397241356321512
0.07614609436787786, 0.06373596118426102
0.0751899942241928, 0.06352006699945027
0.07417584743239951, 0.06332488351326657
0.07310619110448123, 0.06315050790014815
0.07198374261244843, 0.06299698691839178
0.07081135533730916, 0.06286432483170186
0.06959196910824161, 0.06275249414739222
0.06832855970639991, 0.06266144592597707
0.06702409965840454, 0.062591119090249
0.06568154039740405, 0.06254145034006185
0.06430380154491448, 0.06251238114079566
0.06289376109036343, 0.06250386030074136
0.06145424820080477, 0.06251584247328039
0.05998805414960379, 0.06254828540231622
0.058497967837110816, 0.06260114717449021
0.05698683563763922, 0.06267438362777743
0.05545763982546986, 0.06276794514279264
0.05391355651018543, 0.06288177123884088
0.05235792122931316, 0.06301578608023167
0.05079414952697257, 0.06316989504319273
0.049225684199219084, 0.06334398350227254
0.04765595719068519, 0.06353791545669156
0.04608835256550701, 0.0637515298518128
0.0445261701264118, 0.06398463464822472
0.042972596742711276, 0.0642370018633768
0.04143069065980467, 0.06450836651872122
0.039903368750239955, 0.06479842572416687
0.03839339318771762, 0.06510683638127783
0.036903357358655714, 0.06543321136846408
0.035435670887023915, 0.06577711416822496
0.03399254364502597, 0.0661380519676093
0.0325759686185282, 0.06651546733011826
0.031187703656121363, 0.06690872866338919
0.02982925871004198, 0.06731712250602649
0.02850190483777604, 0.06773985518506964
0.027206693786892982, 0.06817606033255691
0.025944476877872425, 0.06862480768403216
0.024715922565944737, 0.06908511257522608
0.023521532765051836, 0.06955594584776945
0.022361658012158694, 0.07003624390167926
0.021236511545521777, 0.07052491866409571
0.02014618236616153, 0.07102086727802182
0.019090647347670076, 0.07152298134973382
0.01806978245560148, 0.07203015562759399
0.017083373134033575, 0.07254129601708834
0.01613112391343519, 0.07305532686624674
0.01521266729071523, 0.0735711974816894
0.08552624982125366, 0.0664407609194209
0.08521163884212947, 0.06600794630677442
0.08482167323707322, 0.06559319826727035
0.08435611466496869, 0.0651973149762381
0.08381510895749919, 0.06482098721009276
0.0831991705415201, 0.06446480583230586
0.08250915711697801, 0.06412927162765215
0.08174624757754938, 0.06381480385549258
0.08091192338028999, 0.06352174729047304
0.0800079532337452, 0.06325037768939851
0.07903638098960619, 0.06300090571286562
0.07799951663813484, 0.06277347942302633
0.07689993020453827, 0.06256818559258051
0.07574044151273432, 0.062385051521564525
0.07452408399264478, 0.06222405173003151
0.07325405109246176, 0.06208511817398888
0.07193363635647167, 0.06196815371789791
0.07056617237914328, 0.06187304502605984
0.0691549828844354, 0.06179967417260629
0.06770335968030251, 0.061747930816368916
0.06621454783281884, 0.06171772079532095
0.06469173177645349, 0.06170896940193993
0.06313802450103832, 0.061721619738583464
0.06155647893110371, 0.061755629449310574
0.05995012940232723, 0.06181096731753921
0.05832206247723108, 0.06188760992231154
0.05667551009153092, 0.06198553746781845
0.05501391938297106, 0.06210472696287531
0.0533409170145746, 0.062245146388476315
0.05166022160513067, 0.06240675005023804
0.04997558517576669, 0.06258947648808892
0.04829075064364135, 0.06279324616360626
0.04660941049525281, 0.06301795640363436
0.04493516616564555, 0.06326347365289872
0.043271495914863616, 0.0635296268401474
0.04162173701832422, 0.06381620533733803
0.03998907116972976, 0.0641229570778463
0.038376509201425026, 0.06444958503239838
0.03678687490997417, 0.06479574187350337
0.0352227878419177, 0.065161022780691
0.03368664489083794, 0.06554495643006768
0.03218060055237456, 0.06594699429747089
0.030706545868013115, 0.06636649855999842
0.02926609367330895, 0.06680273224115237
0.027860588904553046, 0.0672548606878822
0.026491131079378297, 0.06772196019705097
0.025158595944300387, 0.0682030282933607
0.023863655578826318, 0.06869699493623607
0.022606797054876518, 0.06920273428666728
0.02138833974438738, 0.06971907669906294
0.020208451362380003, 0.07024482064382181
0.0190671628275328, 0.07077874431048203
0.017964382017336758, 0.07131961668638484
0.016899906490247765, 0.07186620794977154
0.015873435242848257, 0.07241729905760431
0.014884579565888173, 0.07297169044610705
0.013932873059165263, 0.07352820979540366
0.08057036986577551, 0.06497726089464805
0.08056091967256512, 0.06461656723919597
0.08047049067398954, 0.06426940704633863
0.08029798325719084, 0.06393663431424583
0.0800427561191253, 0.06361900861494181
0.07970460941556504, 0.063317203011407
0.07928375568435672, 0.063031814323668
0.07878079658432474, 0.06276337133619417
0.07819670574855588, 0.062512340643506
0.07753281759870563, 0.062279130059016356
0.07679082200447722, 0.06206408964550658
0.0759727647092754, 0.06186751056354902
0.07508105328896006, 0.061689622098034004
0.07411845737420912, 0.0615305890844479
0.07308806791296729, 0.061390515371966006
0.07199322858449766, 0.061269451812639666
0.07083745547703948, 0.06116740862022587
0.06962435437276246, 0.061084367359743874
0.06835755469859646, 0.06102029177626533
0.06704067374748246, 0.06097513990724562
0.06567729164810308, 0.06094887223554173
0.06427092848584673, 0.06094145368366371
0.06282502631443211, 0.060952849989889514
0.06134296107923382, 0.06098302274854482
0.05982809483796674, 0.06103192506016514
0.05828386749352944, 0.0610994980389817
0.056713918945660746, 0.061185667012509874
0.05512218179038849, 0.061290335027165556
0.053512836823229167, 0.0614133782721896
0.05189020046530593, 0.06155464357900124
0.050258647672761406, 0.06171394962222334
0.048622554979617184, 0.06189108815896414
0.04698624558634473, 0.06208582201289607
0.04535393583124306, 0.06229787980593003
0.043729693403757396, 0.06252695212936438
0.042117415024615884, 0.06277269337300857
0.04052080857666363, 0.06303472353246033
0.038943374383472375, 0.06331262767029304
0.03738838529141291, 0.06360595277318998
0.03585886530074524, 0.06391420191561202
0.03435756648491119, 0.06423682577127553
0.032886943929305974, 0.0645732116369697
0.031449128666916945, 0.06492267033838835
0.030045908825632912, 0.06528442543438728
0.028678744257097707, 0.06565761561564691
0.02734879726184423, 0.0660413051830812
0.026056961891027193, 0.06643449598291672
0.024803890904924502, 0.06683613995824624
0.023590020556951138, 0.06724515191479391
0.02241559336056782, 0.06766042214951969
0.021280678985804026, 0.06808082864694093
0.020185193422144025, 0.06850524860565106
0.01912891653520084, 0.06893256911344359
0.018111508135883456, 0.06936169684154897
0.01713252267261553, 0.0697915666753477
0.016191422649545695, 0.07022114923972948
0.015287590866571794, 0.0706494573117149
0.0757481035401034, 0.06598960851344424
0.07555536555557558, 0.0657579234761187
0.07532340123727493, 0.0655348506396005
0.07505207223832552, 0.06532079417693844
0.07474135796620845, 0.0651161391331451
0.07439135474211185, 0.06492125125001826
0.07400227309449585, 0.06473647704318922
0.07357443568739756, 0.06456214368552175
0.07310827594200907, 0.06439855867988815
0.07260433734456834, 0.06424600932074842
0.07206327343551748, 0.06410476194920109
0.07148584847678546, 0.06397506101147143
0.07087293876545904, 0.06385712793957381
0.07022553279213946, 0.06375116008754118
0.0695447246093917, 0.06365733037918866
0.06883170238331923, 0.06357578750446914
0.06808773439609524, 0.06350665667955255
0.06731415427239493, 0.06345004042791873
0.06651234805577166, 0.06340601931622673
0.0656837446003958, 0.0633746529785987
0.06482980723970425, 0.06335598080430418
0.06395202582852494, 0.06335002202368828
0.06305190951886937, 0.06335677525139029
0.06213098351038845, 0.06337621800800686
0.06119079113489449, 0.06340830644272191
0.06023290130148897, 0.06345297526600635
0.05925892004131771, 0.0635101377280705
0.058270498196073175, 0.06357968532693845
0.05726932132781997, 0.06366148780372327
0.056257090769009824, 0.06375539342341248
0.05523550922491902, 0.0638612297266881
0.05420626894038718, 0.06397880430722959
0.05317104008721905, 0.06410790523157316
0.05213145935061724, 0.06424830111673786
0.05108912067390835, 0.06439974141439689
0.050045569625415134, 0.06456195737935679
0.049002298642323514, 0.06473466306357925
0.04796074219370007, 0.06491755608600931
0.046922271819770975, 0.06511031816390402
0.04588819102184976, 0.06531261540122708
0.044859729977040054, 0.06552409833507916
0.043838040051507, 0.06574440174632792
0.04282418813012044, 0.06597314425557689
0.041819152559863446, 0.06620992814754555
0.04082382511272609, 0.06645434054393952
0.03983901594061603, 0.06670595536461482
0.03886545845913867, 0.06696433538804542
0.03790381398132266, 0.06722903434096698
0.03695467611305907, 0.06749959899097328
0.036018574921503926, 0.06777557121788323
0.03509598088718882, 0.06805649004206296
0.03418730865010497, 0.0683418935904535
0.03329292055956463, 0.06863132098372207
0.03241313003720178, 0.06892431413063163
0.031548204762055734, 0.0692204194183455
0.030698369686273142, 0.06951918928989177
0.029863809889581795, 0.06982018370236735
0.09168535408019912, 0.06510335664149093
0.09138820886950906, 0.06460604718337937
0.09100042194040127, 0.06413102943817524
0.09052121131119938, 0.06367919272657473
0.08995025344734628, 0.06325125978500472
0.08928767463353283, 0.06284780093455564
0.08853403245506926, 0.06246925216223504
0.08769030207000328, 0.06211593111211297
0.08675786756309746, 0.06178805053480546
0.08573851830171754, 0.06148572904934086
0.0846344502399157, 0.06120899925186846
0.08344827214293453, 0.060957813393512514
0.08218301650145793, 0.0607320470690244
0.08084214163741626, 0.06053150366821595
0.07942948276469858, 0.06035592646407117
0.07794916859010476, 0.0602050161747664
0.07640552466747247, 0.06007845348314256
0.07480297357429198, 0.059975920465104735
0.07314595354658257, 0.05989711976243616
0.07143887174505698, 0.05984179427314223
0.06968606904627381, 0.05980974090969455
0.0678917861892923, 0.05980081574175122
0.06606013481410022, 0.05981493119042174
0.06419510517804093, 0.05985205042136841
0.06230062393007634, 0.059912181316536056
0.06038066203087423, 0.05999537039861387
0.058439381080668124, 0.06010169539954802
0.05648124612043849, 0.060231253709620035
0.05451098363748691, 0.06038415234654762
0.05253346073648385, 0.060560499786285256
0.05055359837850826, 0.060760401787339914
0.048576304122392194, 0.06098395685730152
0.046606406320952073, 0.061231247360872196
0.044648589453981466, 0.06150232627948192
0.042707345319450564, 0.06179720557931961
0.040786951094080474, 0.06211585169038706
0.038891453417002474, 0.062458181107192465
0.03702465123159627, 0.06282405320523479
0.035190077058634875, 0.06321325995733118
0.03339097649990988, 0.06362551246483507
0.031630285763985154, 0.06406042440202044
0.02991060699715908, 0.06451749264306154
0.028234181457704458, 0.06499607561968955
0.02660287117034131, 0.06549537544862151
0.02501817527128219, 0.06601443876541735
0.02348126305482046, 0.06655216955453293
0.021993005571968424, 0.06710734498011106
0.020554004816967997, 0.06767863295083583
0.019164620666007277, 0.06826461073156077
0.017824995722069664, 0.06886378398073185
0.016535078210028156, 0.06947460567301511
0.015294643056881971, 0.07009549445409559
0.014103311283375388, 0.07072485206365679
0.01296056782511156, 0.07136107954864944
0.011865777893642527, 0.0720025920688747
0.010818201980852987, 0.0726478321684847
0.009817009603233007, 0.07329528144901477
0.0850597826027042, 0.06363232762923726
0.08503734229551249, 0.06323160840212959
0.08492659087522583, 0.06284689342543445
0.08472598130208722, 0.06247907837986158
0.08443441501097014, 0.062128937077060645
0.0840512378296462, 0.06179713233049336
0.08357622646433521, 0.06148422985806745
0.08300958122077103, 0.06119070979865318
0.08235192532530156, 0.0609169754498414
0.08160431082846288, 0.060663359120923514
0.08076823111451029, 0.060430125167784135
0.0798456400815096, 0.060217470455347435
0.07883897783576667, 0.060025522702148754
0.07775118754168137, 0.05985433937270568
0.07658567506712227, 0.05970391378525323
0.07534622906199714, 0.059574186571659915
0.07403692250713646, 0.059465062205153636
0.07266200934530673, 0.059376424931981815
0.07122583825157672, 0.05930815310624855
0.06973279693007005, 0.059260134726476045
0.06818726758686534, 0.059232277982701115
0.06659358496333852, 0.05922451422547253
0.06495600021916298, 0.05923679400339016
0.06327868109630157, 0.05926908119417244
0.06156576151834842, 0.05932134753575683
0.05982144266187505, 0.059393567884852394
0.05805013399929596, 0.05948571487684967
0.05625656160190591, 0.05959775023418907
0.05444572151698429, 0.05972961815410558
0.05262275369791268, 0.059881241009619036
