flux,fluxerr
0.41839727700476714, 0.044177848369313266
0.4089023666596522, 0.03732340382830163
0.39780168597351206, 0.031114044888868004
0.38507568223275834, 0.025695650313779163
0.3707238782704894, 0.021228760951586843
0.35476884630349037, 0.017859711483315943
0.3372607479773844, 0.01564546948479847
0.31828287704614855, 0.014457509809302816
0.29796752047340697, 0.013985092232614332
0.27653556440653254, 0.013881321582743205
0.2543169536831422, 0.013897240559757789
0.23171170909427985, 0.013913623273887208
0.2091341014018969, 0.013900725130171772
0.18697600063739764, 0.013866883998269327
0.1656037857081864, 0.013828325465020677
0.14535784933341125, 0.013799984714978345
0.12654215145423034, 0.013799097082918422
0.1094096487019439, 0.013841768543671251
0.09413456289908052, 0.013935796811612479
0.08077226836639934, 0.01407695276750821
0.06925607167620716, 0.014250324164103928
0.059440905030064516, 0.014435720843772912
0.05115114071388288, 0.014607919417473726
0.04420804258193447, 0.014744473937839776
0.03843739249660687, 0.014840674320239992
0.033674338999497136, 0.014912233790854783
0.02976828332524083, 0.014980490756986499
0.026587125409551726, 0.015051068421298842
0.024017701960833384, 0.015112101901656546
0.021963405353818317, 0.015148457897351631
0.020341715202854466, 0.01515167908283794
0.019081916991445368, 0.015123599496068667
0.01812309558068141, 0.015089409406681235
0.017412710016997426, 0.015144459472082988
0.01690554114471965, 0.015509395213093724
0.016562755836685514, 0.016527504927804394
0.016351059541340644, 0.01854472228936297
0.016241951835158284, 0.021738586582237183
0.016211124116617372, 0.026079732036217183
0.016237951029403824, 0.031423073210785094
0.016305038146191442, 0.03759711160933102
0.016397818902639496, 0.04444360100574325
0.016504195819825776, 0.051826122053672374
0.016614221526799658, 0.059628124760117814
0.016719815525062635, 0.06774919884319335
0.016814513027248942, 0.07610195109384185
0.016893242556887147, 0.08460976346060513
0.016952129317657647, 0.09320522464107281
0.01698832163253597, 0.10182900360476414
0.0169998380176952, 0.11042899809940172
0.016985432696089084, 0.11895965208503728
0.016944477572847012, 0.12738137822698414
0.016876858891646872, 0.13566004805322746
0.016782886969465442, 0.14376652830655912
0.016663217568496418, 0.15167625138819776
0.016518783610000868, 0.15936881320846358
0.016350736066905323, 0.16682759483739024
0.4167172364875419, 0.043868422830655326
0.40821898954043, 0.03715197871954058
0.3981687779571858, 0.031069389882896793
0.38653779378524433, 0.02576253319607995
0.373313439950396, 0.021386156596295464
0.3585028157715897, 0.018079078302498303
0.3421367015072795, 0.015892902267085472
0.32427445472633304, 0.01470387342670623
0.3050187377422605, 0.014216972139019292
0.28455301912552167, 0.014100343543105905
0.2631622862779019, 0.01411113991262993
0.2412000626077176, 0.014128628456963825
0.21904032218923877, 0.014118982769864313
0.19704754026577084, 0.01408765701941417
0.17557817208595497, 0.014050233982198271
0.15498155584001697, 0.014022379314971283
0.13558675698090933, 0.014021808430256898
0.1176845827420988, 0.014064440309337742
0.10149692044441402, 0.014157664245962476
0.08713401852276506, 0.014297086614312596
0.07458704913710446, 0.014468054972426078
0.06376553111045316, 0.014650974070329474
0.054539015035424764, 0.014821892589901155
0.04676200425310187, 0.014959755440719744
0.04028257440001554, 0.015059894792074625
0.03494855457060992, 0.01513625194011559
0.03061358764718498, 0.015207750553882321
0.027142497371781805, 0.015278804369118736
0.024413189851934337, 0.015337745431729263
0.022315987617329315, 0.015370115674932894
0.02075283340188622, 0.015368652033695727
0.01963662628815119, 0.015338087033184915
0.01889059859582815, 0.015308637933704291
0.018447477272055812, 0.015379392611310208
0.01824856798880624, 0.01576708348302004
0.018242938556710237, 0.016799454381382157
0.018386705688332665, 0.01880226036892085
0.01864237142355912, 0.021943346515597453
0.018978112424356396, 0.026197386173710313
0.019367090813336398, 0.031428281153462835
0.0197868368737147, 0.03747219554440998
0.020218698995741843, 0.04417619115362849
0.020647354113167652, 0.051407553399446505
0.021060372515428364, 0.059052542360355384
0.021447831504508838, 0.06701305216633709
0.021801972895627342, 0.07520366728229776
0.022116899842114107, 0.08354949709752658
0.02238830890205535, 0.09198464040952234
0.02261325366085035, 0.10045107532167205
0.02278993658380646, 0.10889781902988992
0.022917526099291468, 0.11728025583722913
0.022995996208875286, 0.1255595709334293
0.023025986189163128, 0.13370225275037123
0.02300867819298614, 0.1416796421963067
0.022945690777531808, 0.14946751632528582
0.022838986586380915, 0.1570456994294343
0.022690792592336077, 0.16439769767387583
0.41265285956610215, 0.043945494970240556
0.40548913955132443, 0.037266839877286045
0.39679684911157737, 0.031213126521947764
0.3865335248114703, 0.025927024623761778
0.3746704228705087, 0.021563875530697944
0.3611957165409571, 0.018262720822226092
0.34611816645612625, 0.01607562359106859
0.3294716822022855, 0.014881003847093155
0.31132987655623673, 0.014387665875020512
0.29184390471561744, 0.014266701749220699
0.27126460853685513, 0.01427589890242435
0.24991284120068866, 0.014293637575878817
0.22813535495004916, 0.014284912801495788
0.20627920398837737, 0.014254390835926617
0.1846979491986066, 0.014217397848133691
0.16375471259978167, 0.014189715669835021
0.14380696458182407, 0.014189296358558864
0.1251855965417148, 0.014232251596832583
0.10816054786593478, 0.01432606549057916
0.09289331918283787, 0.014466352052413452
0.07942502954239465, 0.014638414791371046
0.06770983145013888, 0.014822600532015373
0.05765293211472777, 0.014994929385114425
0.04913428369071622, 0.015134321251454584
0.04201837240609639, 0.015235997235204751
0.03616176855479871, 0.015313660554043217
0.03142041974768954, 0.015385936136010041
0.027656156099104337, 0.015457015203683111
0.02473974165087288, 0.015515178537487115
0.02255136448684833, 0.015546153017086941
0.020980949151500797, 0.01554321438844472
0.019928562558859098, 0.015512110620938133
0.019304722643408125, 0.015484450969682349
0.01903003613177729, 0.015560416752860424
0.019034503648717126, 0.015956215805466332
0.019256917672881284, 0.01699635767537826
0.019644376851070625, 0.019001858676843477
0.02015177945285764, 0.02213748629493703
0.020741032553698746, 0.02637735996458625
0.02138018986151766, 0.03158562505077882
0.022042676662006617, 0.037598328845263936
0.022706600456487987, 0.04426203925533299
0.023354138566105017, 0.05144345934638139
0.023970994815973357, 0.059028375283580826
0.02454591817510437, 0.0669183962002426
0.025070276919552423, 0.07502802534143582
0.025537682513595145, 0.08328248079852037
0.02594365797257668, 0.09161613583072487
0.02628534598669242, 0.09997138229747767
0.026561252552179532, 0.10829776488270736
0.026771022279537104, 0.11655128561105052
0.026915241931639553, 0.12469381651831535
0.026995269091226293, 0.13269258328395525
0.027013083171139672, 0.1405196980036511
0.02697115626423263, 0.14815172849466246
0.026872341586390344, 0.1555692969507392
0.026719777497733133, 0.16275670389997465
0.4059588684906453, 0.044447377063003314
0.40049334330829395, 0.03771425282927581
0.39350519712914506, 0.03159868770275632
0.3849334346152934, 0.026248708736971722
0.37472821342313234, 0.021826194544389586
0.362853862809435, 0.01847737427543165
0.34929237751091535, 0.016259891676207748
0.3340478370146273, 0.015052314137941673
0.31716158013713575, 0.014557377378066814
0.29875258046553627, 0.014438668758892617
0.2790423146277077, 0.014449378382342419
0.2583266308737369, 0.014466949519091611
0.2369330282255052, 0.014457334189766321
0.2151981060206977, 0.014426113558928281
0.19347937239992982, 0.014388772181100358
0.1721612562243201, 0.014360832118658455
0.15163761779826382, 0.014360401019215565
0.13228733971705148, 0.014404170250160614
0.1144347249941317, 0.01450014397229067
0.09829466375666861, 0.014644037019148433
0.08395545882467245, 0.014820771598557055
0.07140994737206376, 0.015010006611104462
0.06059179895198402, 0.01518657841117098
0.05139920589370131, 0.015328162929394849
0.04370639910751207, 0.015429752077656574
0.03737301248138415, 0.015506134181505116
0.03225304540270195, 0.015577436096577642
0.02820286190227778, 0.015648429441045286
0.025085319729832824, 0.01570705720882686
0.022771027295223976, 0.015738728700900317
0.021139361158307775, 0.015736674163875787
0.020079554010122975, 0.01570618595269784
0.01949160224337654, 0.01567754296755645
0.019286220860707623, 0.015750366765919937
0.01938431211071444, 0.01614380370331038
0.019716532064580464, 0.017189704939338645
0.0202229912724567, 0.01921704993493557
0.02085287361203956, 0.022392831289144204
0.021563552964503796, 0.026686657129681192
0.02231955577074503, 0.03195529545988417
0.023091628969475756, 0.03802765634876376
0.023855914225936664, 0.04474441982771834
0.024593217296703034, 0.051967664236982236
0.025288362481928266, 0.05957961223327402
0.025929623116963646, 0.06747918591791802
0.026508219960467892, 0.07557893909376812
0.027017880154657947, 0.08380277200352312
0.02745445017313792, 0.09208428539975712
0.027815556840397188, 0.1003655696030084
0.02810031111082175, 0.10859627219860897
0.02830904984032728, 0.11673284196379864
0.028443111275700678, 0.12473788602925857
0.028504640430698374, 0.1325796027020122
0.028496420918051525, 0.14023126793887383
0.028421730167431845, 0.14767076273129548
0.028284215284208963, 0.15488013408465473
0.02808778709657235, 0.1618451853878802
0.39689129894008846, 0.04534150090153457
0.39337430315520433, 0.03847728191831426
0.38833743189503156, 0.03222378917446165
0.3816971890068541, 0.02673832165422761
0.37337830864701066, 0.02219441443799603
0.36331663037132, 0.018751511863489317
0.351462469780938, 0.016477386021939953
0.337784991090526, 0.01524929754894714
0.3222886596164019, 0.014755748538168393
0.30505814916138085, 0.014644092086342065
0.28628722437395115, 0.014658509509891848
0.26625086215081656, 0.014675433341970655
0.24526196518243118, 0.014663514974476965
0.22365109119615295, 0.014630570819657207
0.2017850946961947, 0.0145924430236365
0.18007693916192383, 0.014563962776740073
0.1589653283468562, 0.014563327463528938
0.1388858468316363, 0.01460822082165411
0.12022438196089658, 0.014707618066132662
0.10325235432767843, 0.014857471652988017
0.08810349038096127, 0.01504206465539098
0.07480411022093947, 0.015239844461303567
0.06330937559124696, 0.015423427831299168
0.053528166080946224, 0.015568105338921771
0.04533705474254954, 0.015668480081719924
0.038592121880418856, 0.01574157044919352
0.03314019862957284, 0.01581056064768237
0.028828868370593185, 0.015881418105042042
0.025511670340243264, 0.015941413493064997
0.02304974296633653, 0.01597525681590438
0.0213131485574804, 0.015975856542563904
0.020182264613144766, 0.015947064339705677
0.019548957841125453, 0.015915653032409247
0.019316654229082925, 0.015979268411701834
0.01939984727723225, 0.016362830639791635
0.01972372157564272, 0.01741435432491342
0.0202239350036559, 0.019481368021358882
0.02084628222282964, 0.022737314309706175
0.021545696671211475, 0.027143661315922215
0.022285043023932083, 0.032543164759066164
0.02303403677868812, 0.03875155852058191
0.02376829248029368, 0.045599030835498953
0.024468486497947837, 0.052939626847656865
0.025119621725399954, 0.06064945512462481
0.025710382886467268, 0.06862282992315369
0.02623257230984709, 0.07676892669437231
0.026680617100860397, 0.08500930315500939
0.027051139594569302, 0.09327610462588007
0.02734258383553212, 0.10151072892322177
0.027554891603045268, 0.10966278471239256
0.027689222196125487, 0.11768923654356017
0.027747710816821, 0.12555367170799617
0.027733260951166478, 0.13322565056922622
0.02764936665000411, 0.14068011801296065
0.02749996106314758, 0.14789686305875105
0.027289287984572672, 0.15486001909958916
0.027021793528681812, 0.16155760030445737
0.3850120232581542, 0.046597865617291345
0.38368952608303675, 0.03953932109649627
0.38086100381000343, 0.03308304367861503
0.37641621502417993, 0.0273993503790548
0.3702494084194277, 0.02267843764873601
0.3622620007560473, 0.019099035039383438
0.3523657787381862, 0.016743941419923525
0.3404872158296612, 0.01548822333925325
0.32658586296388886, 0.014998545455470854
0.31070608007196365, 0.014897868090841046
0.29301159460995235, 0.014917434311105933
0.27375687260032, 0.014932889883572656
0.253241609177641, 0.014917397890661592
0.23179242469950187, 0.014882161684140893
0.20979023159043697, 0.014843275808786045
0.18768493322148108, 0.01481418885130979
0.1659710655901989, 0.014813074883901465
0.14515288798030643, 0.014859139617582793
0.12568847116019782, 0.01496292574788872
0.10791180620595824, 0.015120867081380837
0.09200236228896264, 0.015316425357845404
0.07801594609770601, 0.015526371543048721
0.0659225463598652, 0.015720002209670594
0.05563371328335679, 0.01586891032970841
0.04702002626245737, 0.015967056988507918
0.03992629110906229, 0.016034887665131812
0.03418596004297595, 0.016100260466852662
0.02963388645055305, 0.016170845327316875
0.02611265124843853, 0.016232757906020034
0.0234741245206597, 0.016269735035820444
0.021580608788678443, 0.01627449276700114
0.0203060736086964, 0.0162488604999605
0.019537192987995583, 0.016213954128599873
0.019173277331133488, 0.016263625857013658
0.019125657457631742, 0.01663077290638093
0.01931721597549924, 0.01768782007816612
0.019682109561186288, 0.01981101896535657
0.020165370118340995, 0.023183957541780893
0.020721773711328145, 0.027755803710377648
0.021314484251366065, 0.0333484568430956
0.02191384862191633, 0.03975850553629202
0.022496343041038674, 0.04680123562446113
0.023043653206090243, 0.05431949777366405
0.02354187266822072, 0.06218102294312419
0.023980805587251845, 0.07027392070297493
0.02435336154216097, 0.07850291419996919
0.024655031436447063, 0.08678657042377053
0.024883434757588835, 0.0950552833456486
0.02503792954020939, 0.10324975398447762
0.02511927735689246, 0.11131978678852288
0.025129356530542855, 0.11922328914147498
0.025070917538730978, 0.12692540638597938
0.024947375273047592, 0.13439775282125901
0.0247626334340743, 0.14161771570242915
0.024520936892660133, 0.14856781882789108
0.02422674833817766, 0.15523513771521066
0.023884645970265243, 0.16161076137039745
0.3705762432048357, 0.048077141632215936
0.37153105041608486, 0.04079133743089347
0.37101733430544076, 0.03409571891199228
0.36889579746669177, 0.028176220999128355
0.3650268859811746, 0.02324338066786134
0.35927312673139833, 0.01949997982536078
0.3515020092108797, 0.017048125245567935
0.3415901152991574, 0.015760627712695697
0.3294439981772843, 0.015276858493002173
0.3150609894171224, 0.015189575912232033
0.29857116914987675, 0.015214631755989229
0.2802072383027778, 0.015227544857040169
0.26025545022055824, 0.015207608968263415
0.23903914000680038, 0.01517016105221112
0.2169566112156351, 0.01513108714868832
0.19450159696468575, 0.015101570612437387
0.1722335196121841, 0.015099619545062403
0.15073469527613473, 0.015146529773971726
0.13054282786138405, 0.015255045340349459
0.11205729544016145, 0.015422377980006067
0.09550073815978084, 0.01563110832678807
0.0809521159229735, 0.015856059490145947
0.06838794662326168, 0.016062275888267585
0.05771353722181605, 0.016216406467186566
0.04878489878383207, 0.016311478495335447
0.04142817129200225, 0.01637243050113597
0.03545803513008717, 0.016433187037824214
0.030693894696703944, 0.016503350378440047
0.026967255301457934, 0.016567237575216623
0.024122585962665078, 0.016607493541168937
0.02201765667410113, 0.016617269791367933
0.020524032360156246, 0.01659641790715971
0.019527470781898714, 0.01655862881380467
0.018927433637546582, 0.01659186301683768
0.018636191048951773, 0.016937853777323007
0.018578118719783567, 0.01799933216009491
0.01868922112229537, 0.020189038540420173
0.018916570664709254, 0.023703090560743437
0.019217058205551498, 0.028474396333428
0.01955594999148934, 0.034298362464962553
0.01990561742014331, 0.040947912947386506
0.020244435442072634, 0.04822033116249516
0.02055582900540906, 0.05594522771297065
0.020827449322025817, 0.06398065359352408
0.021050463846952354, 0.0722077616056508
0.021218945740728412, 0.08052649740461994
0.021329350253182774, 0.08885245008347242
0.021380066949024442, 0.09711454213011884
0.0213710380108602, 0.10525326460374121
0.02130343402202814, 0.11321925955248194
0.02117937966598071, 0.12097212884844025
0.02100172269536748, 0.12847939845210457
0.020773840335447796, 0.1357155969088208
0.020499478004407837, 0.14266142406474142
0.020182615868070453, 0.14930299569744854
0.019827359307412005, 0.1556311551458469
0.019437849872561974, 0.16164084595734524
0.3547024049213612, 0.04955745833216517
0.357790723922596, 0.042052855830789
0.35947589004357705, 0.035122064156582644
0.3595906164147761, 0.02896716544419544
0.35796180524739957, 0.02382011682860628
0.3544123422964829, 0.01990958935542142
0.34876342922870573, 0.017359215712802068
0.3408382876082914, 0.01604034869672426
0.3304857718409601, 0.015563598547210945
0.31765176092201336, 0.01548999713540278
0.3024297934143691, 0.015519812629977764
0.2850291165436869, 0.015529286578133936
0.2657213849339913, 0.015504730288108972
0.2448259911756179, 0.015465723795121677
0.22275941668052016, 0.015427307819397768
0.20006172942851186, 0.01539765440760823
0.17736025090507176, 0.015394517343503592
0.15531744786034213, 0.015441710249147237
0.13455053466162983, 0.015554608846602798
0.11552083152520393, 0.015731406444674273
0.09848754129326814, 0.015953858317068765
0.08354460081859011, 0.016194863202041637
0.07066692288647201, 0.016414776857432395
0.059746454530547576, 0.01657454698979295
0.05061893703622194, 0.016666059864176935
0.04308785085448835, 0.016719375450783565
0.03694711305949572, 0.016775219876884552
0.03200091723251647, 0.01684496485636731
0.028071907794693065, 0.01691045475252024
0.0250007468561821, 0.01695326575244276
0.022645064981967594, 0.01696791211250517
0.02087867472036152, 0.016952957108978022
0.019590876029929167, 0.01691387432084061
0.01868534625313054, 0.01693104341210442
0.01807890583324003, 0.01725426910554296
0.017700526890316176, 0.018318180467652257
0.01749059606140465, 0.02057477556155338
0.017400156016863132, 0.024232961445215598
0.01738959395858717, 0.029206953165294047
0.017427201877404038, 0.035263161825746125
0.01748792129553359, 0.04214934465179038
0.017552263404946977, 0.0496440904356364
0.017605382012802134, 0.05756358817974493
0.01763627945465829, 0.06575636769094166
0.017637128064475507, 0.07409702885372811
0.01760269193404784, 0.08248132282177087
0.017529835585701998, 0.09082256917923838
0.01741710784952736, 0.09904900640193433
0.0172643907058094, 0.10710174222581488
0.01707260414717489, 0.11493308836513591
0.016843459253713226, 0.12250515092255689
0.016579252675645875, 0.1297886017795062
0.016282696598118127, 0.13676158764944693
0.015956779035353728, 0.14340875120144742
0.015604649979406313, 0.14972034848816318
0.015229529523022147, 0.1556914522791501
0.014834634596748436, 0.16132123378619365
0.33676327592263267, 0.05099639469583449
0.34188784012306506, 0.043293850444188785
0.34570818492776156, 0.03614285040705907
0.3480302719291148, 0.029761929332087902
0.3486476426379033, 0.02440531097108349
0.34734237627308717, 0.02032917252256077
0.34388653151440024, 0.01768088384897721
0.3380450548478388, 0.016331638073298318
0.32960232531789896, 0.01586272681111599
0.31844585064900427, 0.015802719100337304
0.30462711761489714, 0.01583642308804938
0.2883277628501704, 0.01584163616314486
0.2698016561966534, 0.015812451466705908
0.24936226134156403, 0.015772680771181873
0.22744455187472884, 0.01573581653598315
0.20463776638021336, 0.015706281506061997
0.1816409167287474, 0.015701562096826036
0.1591995655621411, 0.015748473063753255
0.13801101607077432, 0.01586543075063898
0.11859558995886545, 0.016051751697120403
0.10124287392857148, 0.01628839827817375
0.08605424237986507, 0.01654642022686573
0.07299596368895904, 0.016781086927641378
0.061941080947499276, 0.01694687815223228
