flux,fluxerr
0.6679182301408945, 0.023294942178934484
0.6360147612833507, 0.01783183407887938
0.603947359414563, 0.012877970241871485
0.5718094794663945, 0.008450945203757266
0.5397026941902344, 0.00457234340437723
0.5077371719212395, 0.0013314126279459677
0.4760321754636096, 0.0017199159007503977
0.4447162564245134, 0.0038835974617941974
0.4139256106334355, 0.005539630623947378
0.3838009104735841, 0.006664239597155751
0.354483976956071, 0.007279233350164943
0.3261144532646541, 0.007420568125564062
0.2988264706709603, 0.007134836611455447
0.2727452973904999, 0.006478071216921513
0.24798396090934458, 0.005515015896689487
0.22463983426917666, 0.004318858772188649
0.2027911767334152, 0.0029729604799802523
0.1824936191562103, 0.0015875891277715142
0.16377658429626077, 0.0006120280409840607
0.14663970626861045, 0.001451984123451349
0.1310511831636408, 0.0025656943991680453
0.11695131332013127, 0.003491381762861138
0.1042580898134799, 0.00415897967493366
0.09287281678158846, 0.004541419424637738
0.08268567698642684, 0.004635196819356919
0.0735812659774285, 0.004456875249650192
0.06544410818365498, 0.004041420120815226
0.058164170197534865, 0.0034406556324311946
0.051642386534505744, 0.0027216604504074534
0.04579621315290145, 0.0019657490961601447
0.040565224080062925, 0.0012709975843272197
0.03591676656161669, 0.0007664824013114308
0.03185168840678256, 0.0005847790676461176
0.028407901413792444, 0.0005965263145304817
0.025639494726814583, 0.0005964691010333634
0.023561610880240412, 0.0006136912157903842
0.022093370515749024, 0.0006836741093611619
0.021050412037711314, 0.000726355381658223
0.020199518309686703, 0.0006891423450123293
0.01932456334557672, 0.0006134147113701898
0.018292532370252253, 0.0005818879301296664
0.017107755833035657, 0.0005861605028000435
0.015891063043932327, 0.0005694153213830153
0.014791080761745271, 0.0005443550937392199
0.013897037367145438, 0.0005566056469778951
0.013217110978346193, 0.0006325771560362118
0.012714810476823808, 0.0007227089322897452
0.012334405599572404, 0.000743786044423655
0.012012811258219843, 0.000679254091687592
0.011690222541772915, 0.0006092475325119374
0.011320709873278875, 0.0006150032718903227
0.010880143266500735, 0.0006141235618380576
0.010363487052769025, 0.0005973894868659209
0.009775763258610879, 0.0010142782301309373
0.009124256711509937, 0.0020756566677808635
0.008415923083353087, 0.0036841915959039935
0.007657282811525271, 0.005814396442598645
0.6602907192520543, 0.022385830372850756
0.6307711202046068, 0.01713706796973471
0.6009991032871306, 0.012372604798406156
0.571058566070283, 0.00810847674039909
0.5410411394143786, 0.004359574151632949
0.5110466599005069, 0.0011452900281805057
0.4811836641305634, 0.0015647934003305561
0.45156961187855643, 0.0037053137463474526
0.42232945688679374, 0.005313499629605921
0.3935928495050262, 0.006401429969533113
0.3654911978083464, 0.006994684439803124
0.3381547324421556, 0.0071291194976115585
0.31170956670465594, 0.006850077900829344
0.2862747430476912, 0.006211701319647991
0.261959257177832, 0.005276166240459421
0.23885905087008175, 0.004112819925058117
0.2170539645528045, 0.0027973311848498456
0.19660464066636413, 0.0014121302229026104
0.17754936865923537, 0.0001736810200146717
0.15990092678816045, 0.0012783976168411321
0.14364510087709276, 0.002392212673467194
0.12874370447397643, 0.00328435226198502
0.11513938451142806, 0.003913725010175144
0.10276044324463957, 0.0042606472397274855
0.09152561566270279, 0.004324823308848816
0.08134881621199493, 0.004124517264195856
0.07214386867839283, 0.003695445798196934
0.06382923298075296, 0.0030891722886364184
0.056332742668159436, 0.0023709054251021965
0.049596366902985405, 0.0016167014183247437
0.04358101076665496, 0.0009107489409373801
0.03827136779787181, 0.00035179536794161263
0.033680836775508656, 0.00018902709272912953
0.029854093918717753, 0.0002768977152272821
0.02684333676565927, 0.0002133910039085899
0.024647662144806202, 0.00019558840109565263
0.023150810182470262, 0.00034204595727964446
0.022116983774772725, 0.00041046317643011126
0.021259350663704598, 0.00033977028530569886
0.020321808941047362, 0.00020112284280020745
0.019160859611081993, 0.0001875602061363236
0.017811641974376968, 0.00022265020348804913
0.01645297141171688, 0.0001853450298449227
0.015281090172257488, 0.00016655096186216284
0.01438815113069255, 0.00016460003230931128
0.013747059428070805, 0.00022863192393500243
0.013287127246263962, 0.00036110600731888707
0.012935710159208526, 0.00041420908220431445
0.012626336869732595, 0.00032815047706874603
0.012303807171247287, 0.00018134946445529942
0.011929288419032302, 0.0002443443394398307
0.011483681334666266, 0.00030161671650417695
0.010964027508202133, 0.00017345228996046988
0.010375782809438525, 0.0006071887932780493
0.00972623004080494, 0.0016328180207835154
0.009022291876269725, 0.003132299247669234
0.008270445884151859, 0.005115618644415774
0.654994793842411, 0.02066054497340858
0.627360248958801, 0.01580809201773766
0.5994504494344353, 0.011406889235051827
0.5713370085250652, 0.007470850954829486
0.5430981099642402, 0.004012361697371291
0.5148189025397686, 0.0010419645097930787
0.48659191268514357, 0.0014320247460401796
0.45851724775368885, 0.0034057442186051457
0.43070151838254156, 0.004884349465007183
0.40325570068607053, 0.005882869283196762
0.3762928903439485, 0.006425825272746719
0.34992606166657714, 0.006546798607834752
0.32426582543507954, 0.006287927233820032
0.29941817906090606, 0.0056993101228361535
0.2754822425991342, 0.004838295527915366
0.25254797413737806, 0.0037686296258457558
0.230693858029299, 0.002559441343386613
0.20998455940247004, 0.0012840403753680183
0.19046853828778054, 1.8514443655559294e-05
0.1721756613860744, 0.00116049002443553
0.1551159782708453, 0.0021843844823813932
0.13928162352820173, 0.003000868429471959
0.12464995741307781, 0.003575052654207343
0.11118671504297738, 0.0038896451639994214
0.09884912083255104, 0.003944808370459219
0.08758897679173881, 0.003757625478668617
0.07735573322113978, 0.0033611173505594073
0.06809955036232382, 0.0028027386961799205
0.05977435948151921, 0.0021422543280567082
0.05234093189645638, 0.0014488472965565919
0.045769964468249165, 0.0007972277478030064
0.040045190104442276, 0.00026236941469916073
0.035166520251241326, 8.774269707599553e-05
0.03115127629008435, 0.0002089977840457622
0.028014188266553264, 0.00012127441821342695
0.025717673585636498, 8.239647768660865e-05
0.024121204219708384, 0.0002675763945931582
0.022981437944071318, 0.0003346842157118884
0.022015883247033685, 0.00025702352846478446
0.02097817548302476, 8.235878241925313e-05
0.019733462260338754, 8.30628118912596e-05
0.01831891840486602, 0.00013219341185300413
0.01690940383520623, 5.4352008672395075e-05
0.015697382676259454, 4.713141514452592e-05
0.014777107459506106, 3.4373219082094694e-05
0.014127503459736903, 0.00010641327038567475
0.013679968432251983, 0.0002647901686473234
0.013357692061889491, 0.00033037189481651124
0.013086070626633698, 0.0002507773201196474
0.012800498325320651, 5.160404185203459e-05
0.012454142319478775, 0.00016042607490142187
0.01202340834231944, 0.00023403328502076326
0.01150416428270933, 3.878144104591939e-05
0.010902466713783638, 0.000508951028955204
0.010226621630854327, 0.00145330393484603
0.009484546361627887, 0.002822521652091897
0.008683664187524939, 0.0046349423598695165
0.6476610780360215, 0.019930760959771632
0.6224300806682099, 0.01525793651280337
0.5968311615229676, 0.011015748548082452
0.5709248627747804, 0.007218426343404781
0.54477775320511, 0.0038787533421352923
0.5184628059602799, 0.001007760268919546
0.49205979452550175, 0.0013856593092400546
0.46565552747037586, 0.0032969255965416226
0.4393430753252524, 0.00473026669516158
0.41322016409662576, 0.005699557711433971
0.38738748771224213, 0.006227960299380867
0.36194702872087453, 0.0063475080194170695
0.33700038227417517, 0.006098624019449703
0.31264707824115695, 0.005529547900192754
0.2889828963213011, 0.004695649097963689
0.2660981689944827, 0.0036586035809070324
0.24407606712056543, 0.002485410064431612
0.22299086298072934, 0.0012472231824150468
0.20290616548873935, 1.8038794909078044e-05
0.1838731490611321, 0.0011277190983182248
0.1659294740358994, 0.0021231015910628463
0.1491000728403701, 0.0029171860713456703
0.1333986699334044, 0.0034759206839019884
0.11882929761050146, 0.003782366138334797
0.10538778085588307, 0.003836564435713757
0.09306319549843803, 0.003655027218625613
0.08183930387116495, 0.0032697865351678014
0.07169597214961232, 0.002726938708048012
0.06261057347022794, 0.0020845844796232907
0.054559380937254154, 0.0014100207816070947
0.04751895459182287, 0.000775958485879443
0.0414675263861079, 0.0002554028077314563
0.03638638604116746, 8.542930066767661e-05
0.032259825698509756, 0.00020348432560274003
0.0290593242465269, 0.00011808758211208077
0.026705678555325654, 8.024137324049525e-05
0.025031021326549243, 0.0002605512266675286
0.023784069400377403, 0.00032590311497112377
0.02268948608250166, 0.00025028708353666833
0.021517155118916716, 8.021284283871017e-05
0.020151581774312605, 8.08969379614603e-05
0.018646693493396066, 0.0001287376726914436
0.017187338396974495, 5.2946895305422475e-05
0.01596644075525442, 4.591302101675302e-05
0.015067573818948946, 3.3494569627982805e-05
0.014452836605145262, 0.00010362349889000214
0.014040404477586501, 0.0002577976894637528
0.013747224200096162, 0.0003216042070090906
0.013497702188922295, 0.00024408564708311824
0.013229319192303378, 5.023450051742306e-05
0.012898245089435241, 0.00015607372658776183
0.012483016858093629, 0.00022759601303417703
0.01198042490792789, 3.772054533083199e-05
0.011396770810339497, 0.0004944690408368559
0.010740417087725272, 0.0014111410366619663
0.010019313862297435, 0.0027390150344271144
0.009240902985492818, 0.00449510133602182
0.6382294352526988, 0.0199893246674998
0.6157018849583297, 0.015323843339931791
0.5926784074181406, 0.011079009795745345
0.5692087090294702, 0.0072712784810464726
0.5453483046645909, 0.003916526447184509
0.5211589151033851, 0.0010394776678849475
0.49670888558052995, 0.0014147071849234328
0.4720734846335325, 0.003340636941247109
0.4473344173473742, 0.00479375695410437
0.4225786904150009, 0.005780604204317098
0.3978974208846704, 0.00632238731889741
0.37338465874522003, 0.006450074019670157
0.34913621930641947, 0.006203506894404086
0.32524852122136905, 0.0056307614168343775
0.3018174260165618, 0.0047874690683389716
0.27893707498398773, 0.0037360850801858502
0.25669871929822585, 0.002545303930522588
0.23518953919438293, 0.0012916804863079897
0.214491448031698, 0.00021051994269000087
0.19467988576088005, 0.0011717716396089195
0.17582282720787343, 0.002183500768457144
0.15798038615699747, 0.002997231464628539
0.1412046433393236, 0.003573190510512417
0.12553945516467555, 0.0038926467428024025
0.11102023220069952, 0.003954791923582363
0.09767368650930927, 0.00377582502918532
0.08551754686675153, 0.0033879304382170936
0.07456024084430658, 0.002837847951705019
0.06480054262183339, 0.0021849507462729134
0.0562271853608529, 0.0014989234832688731
0.04881843685641217, 0.0008581526998708184
0.04254163712920847, 0.0003602216395129273
0.037352695839375664, 0.00021654255364795638
0.033194734947961234, 0.0002822861206272728
0.029987821629346406, 0.0002362802319143351
0.027606247266599312, 0.0002263500721208292
0.025856570068580657, 0.0003431422212743034
0.024488300085212498, 0.00040280321122741254
0.023245462164364107, 0.0003446413178820426
0.021925681067736957, 0.0002322591603905081
0.020439422466170573, 0.00021592514318155635
0.018855732062840504, 0.0002433080732107534
0.01736137330977293, 0.00021746665016217985
0.016141661773485548, 0.0001972613881317902
0.015267473946763518, 0.0001972729190238805
0.014687731895290422, 0.00025836501928669684
0.01431108178778888, 0.00036892616444652573
0.014049629021587465, 0.00040970563049494
0.01382646926377717, 0.0003321881880533721
0.013579959004951151, 0.0002156715676570013
0.013268001552873866, 0.00026091663997860915
0.012870612614119455, 0.0003031412072060862
0.012385517782369113, 0.00020809133571394965
0.011819616151246751, 0.0005855160452715937
0.011181731656135141, 0.001513776962882242
0.010480210868531013, 0.0028757277617277683
0.009722835372868851, 0.004673176343864125
0.6255285054485854, 0.020925120505294693
0.6060504190223854, 0.016077913324099618
0.5859220340557566, 0.011651544654777116
0.5651815169196693, 0.007666969787225935
0.5438729060452874, 0.004146105059180315
0.522046572264712, 0.0011380192183389215
0.4997597070934002, 0.0015247343500560688
0.4770767265343981, 0.0035566875976888093
0.45406905608387055, 0.005105020561688861
0.4308144076274625, 0.006163771253313896
0.4073960237397763, 0.006751580734892395
0.38390194571692376, 0.006898823831122969
0.36042430211797805, 0.006645978565623825
0.3370586145493465, 0.006042835679388177
0.31390311745314536, 0.005147809976272201
0.29105808870931366, 0.004027333044487744
0.2686251878945253, 0.0027559164553486244
0.24670679904524268, 0.0014223503447997924
0.22540537479489642, 0.0003633509456120114
0.2048227693045395, 0.0012965513071871034
0.1850593085655191, 0.0023792325850776363
0.16621217821352807, 0.0032606068067925556
0.14837352236973686, 0.0038897392169325636
0.13162850757066946, 0.004244075026723284
0.11605335469637122, 0.004321367708462514
0.10171333075970139, 0.004138040628360834
0.08866069227331108, 0.003727988184593823
0.07693257182086595, 0.0031411063077709336
0.06654879926796964, 0.0024414584986558138
0.05750964890214736, 0.0017054324876971305
0.04979350357626158, 0.0010222080698721067
0.04335442671042082, 0.0005111807901880528
0.03811963267558065, 0.00035536401998550717
0.033986728688004765, 0.00039812876884626365
0.03081955727106843, 0.0003726187004325623
0.02844212017431435, 0.00037418353158077245
0.026634216749375973, 0.0004696867932677243
0.02514801629019595, 0.0005256718632366993
0.02375087862329933, 0.00047648863449571666
0.02227307289186941, 0.0003798512727638896
0.02065570716701364, 0.00035525673664996464
0.018986362343977624, 0.0003748199503327966
0.017455338987572504, 0.0003568118375085941
0.016240091920517237, 0.0003310644405833964
0.015396776004634453, 0.00033552848913281544
0.014858340371899247, 0.00040737172425381015
0.014521938739689185, 0.0005100030069592743
0.014294200113830624, 0.0005395852315682588
0.014097241429250862, 0.0004614661186444675
0.013871164493018076, 0.00036588607310741883
0.013576593667431806, 0.0003933217337941715
0.01319578641855205, 0.0004171015490588754
0.012727879785871442, 0.0003561339475982976
0.012180666228229756, 0.0007416021175278772
0.01156364610649226, 0.0017328627865824617
0.010885733097558888, 0.0032034056919323373
0.010155180688156368, 0.005137970326946453
0.6089767427738277, 0.022600857030091626
0.5927072408922971, 0.017416591952897718
0.5756322634386254, 0.012659230349258543
0.5577773741683536, 0.008356284273740102
0.5391742474198512, 0.00453782361814819
0.5198612363366512, 0.0012782729628549809
0.4998839811855296, 0.0016951382929532655
0.4792959612822919, 0.00392137347657206
0.458158527465788, 0.005634371793109914
0.43654051199467564, 0.006815157440264914
0.4145178293382511, 0.0074795157192762834
0.39217311717273307, 0.007657543263123025
0.3695954152300757, 0.007391282784591558
0.34687987969070505, 0.0067337736163817444
0.32412753091963953, 0.005748328403032748
0.30144503247255444, 0.004508008415758891
0.278944499390506, 0.003096232883285742
0.2567433339108416, 0.0016169685402019273
0.23496408680420675, 0.0004862748200408928
0.21373431565860923, 0.0014800654622655854
0.19318573032069059, 0.0026898401306793547
0.1734514345737308, 0.0036834528146934995
0.1546623914647052, 0.004397387743857932
0.13694384122803252, 0.004804163835469803
0.12041168456513614, 0.0048998966657274315
0.10516881257635272, 0.004701985904424842
0.09130136445862448, 0.00424770884369175
0.07887489383758761, 0.0035926311872579255
0.06793042429964818, 0.0028087104506255307
0.05848037431144361, 0.001982610816401867
0.0505043312859432, 0.0012172305293020067
0.043944654044460164, 0.0006515572363367778
0.038701882798604405, 0.0004707921893532726
0.03463046706109856, 0.0005071577798011614
0.03154006317146018, 0.0004884184574382795
0.02920471353406595, 0.0004957745529091537
0.027374707215933523, 0.000592299994858527
0.0257993232335709, 0.0006507194176154399
0.024263277695387785, 0.0006005741919110155
0.022625859874484247, 0.0005006306809317283
0.020860378897093922, 0.0004703266751672041
0.019081733928158377, 0.00048727349471605575
0.01749657017195396, 0.00046871679637646064
0.01628335388040552, 0.00043925737468334595
0.015481351011023752, 0.0004467710548038875
0.014997019605703875, 0.0005294521124674295
0.014707514815268819, 0.000639201615497914
0.014511355155365557, 0.0006678068344996583
0.014331318807717413, 0.0005841952310563417
0.014113101902674091, 0.00048763761846789877
0.013824070055804102, 0.0005093154518049073
0.013451263796933503, 0.000526118801898229
0.012996137678683264, 0.00047581877198938407
0.01246738339693122, 0.0009042518964858484
0.011874940721331061, 0.0020070893043933604
0.011228032631036972, 0.003646624865558121
0.010535119804235408, 0.005793924231719111
0.589270827568327, 0.024452752486480493
0.5760670336539018, 0.018900451814799945
0.561934292136836, 0.013778920277438265
0.5468847270578694, 0.009122939579179232
0.5309367082673349, 0.004971078441192606
0.514115544181695, 0.0014173743989399263
0.4964542308669607, 0.0018747067104018706
0.4779941705192636, 0.004328254678062953
0.458785435669295, 0.006230028384985534
0.4388866693751104, 0.0075507967927648445
0.41836500217123346, 0.008303418154528838
0.39729603207260944, 0.008517553705938454
0.3757638666330068, 0.008236830678424895
0.3538612262299114, 0.0075177840368289
0.33168960801292985, 0.006429093806440344
0.3093595102069052, 0.005051079130529196
0.2869907167171994, 0.0034765851864280773
0.26471264223777136, 0.0018234769963394032
0.24266473830931293, 0.0005698154047139176
0.22099691688281412, 0.0016737470126803968
0.19986883342396092, 0.0030357017122441903
0.17944608293006306, 0.004158764201471713
0.1598951527340577, 0.004968700406226127
0.14137832248058166, 0.005433192046839069
0.12404852968539137, 0.005546826633684951
0.108044167847036, 0.005328378527021553
0.09348378379464117, 0.004819240139272648
0.0804606405339985, 0.004081684059934658
0.06903711129407371, 0.0031968046654815728
0.059238869780415405, 0.0022627482671466847
0.05104884079563831, 0.0013966973322562153
0.04440087440448867, 0.0007572977761804632
0.039173106600652104, 0.0005508690770198449
0.03518208009294711, 0.0005897352296423171
0.032188611902441926, 0.0005704400490007853
0.029920259858883073, 0.0005800451008855759
0.02809740473126449, 0.0006877717696711846
0.026462025237415466, 0.0007532094015418829
0.024809972396757134, 0.000697156051195453
0.02302418581997809, 0.0005851678753839357
0.021108363608239686, 0.0005502276260936751
0.019208606141703544, 0.0005684213088924696
0.017555789241995873, 0.0005474884460568642
0.01633610234123293, 0.0005139976277479259
0.01557267645384654, 0.0005230631164031751
0.01514118747407434, 0.0006172026795174512
0.014894934289196509, 0.0007406822931260118
0.014723047895627327, 0.0007723252192949723
0.014549576608858318, 0.0006785133024714199
0.014327382707624637, 0.0005710300966351307
0.014032207983240572, 0.0005930548917450887
0.013656850126009487, 0.000609629912428103
0.013205333799372143, 0.0005574380998236485
0.012687113349313765, 0.0010373177210709975
0.012112336801484108, 0.0022684416521604857
0.0114903099182508, 0.004093178076228749
0.010829484668005025, 0.006471446502099762
0.5649869887242769, 0.026285593816118436
0.5548455855069172, 0.02037899917583341
0.5436864409915299, 0.014900938797282545
0.5315067721934524, 0.009893758887866472
0.5183099085442876, 0.005404082022392557
0.5041061108766329, 0.0015346278623829105
0.4889134668350978, 0.0020422528900935362
0.47275878497337065, 0.004741651789075335
0.45567809926151276, 0.006843086985021334
0.4377168694010444, 0.008312481381234062
0.4189302300119184, 0.009159881582420846
