flux,fluxerr
0.08247383260381186, 0.006765871872710916
0.07991285212370795, 0.005913099615117192
0.07711578399763257, 0.005192104530485231
0.07408726044628544, 0.004616468351598513
0.07083484823192795, 0.004191536724827888
0.06736948297075489, 0.003908999444934234
0.06370622341466295, 0.0037452830093705207
0.05986712212987532, 0.0036670985016326327
0.055884096923274174, 0.0036412622521103315
0.05179895157464139, 0.0036420387511879866
0.0476627332165153, 0.0036531266795072183
0.043533790726248314, 0.003666187531830881
0.03947424404120815, 0.003678233592633463
0.03554495587769985, 0.0036891860829881794
0.03179925171774943, 0.0036999731391549316
0.02827730621918593, 0.0037109967616055354
0.025004965237574655, 0.003721468144509411
0.02199586144471116, 0.0037295910278720445
0.019253925650424775, 0.0037334922137806643
0.016775947499185616, 0.003732358147963741
0.014554067761560067, 0.0037269451078010708
0.012578202963835215, 0.0037192462467198198
0.010837966026517555, 0.0037116324318853125
0.009322781206520194, 0.003706197966914214
0.0080209485464459, 0.0037041822513743904
0.006918817822978776, 0.0037053996005004886
0.006000764896448502, 0.003708307364877428
0.005249624863256561, 0.003710708306497283
0.004647019879605298, 0.003710968262126291
0.004173604393466184, 0.003709010609879927
0.003809290900001031, 0.0037064157201448155
0.0035334791075386186, 0.0037055693921841664
0.003325727787578336, 0.003708393553394025
0.0031676065581213633, 0.0037154839040907358
0.003044377949207061, 0.0037257883105578683
0.002944949155241175, 0.003737022540354157
0.0028611429705521973, 0.003746312610740486
0.0027870243105694555, 0.003750958902742668
0.0027183745112906205, 0.0037495656345971702
0.0026522280747032466, 0.0037428200691551
0.0025864241607589026, 0.0037334204370672746
0.002519178096032902, 0.003725142186058764
0.0024488722821721775, 0.0037215755695924435
0.0023742930980489778, 0.003725127033332799
0.0022949770225800066, 0.003736032582738331
0.002211060930362885, 0.0037517975977081194
0.0021223426352058403, 0.003767613134004798
0.0020277075048182546, 0.0037777256651926982
0.0019254443358890894, 0.00377767190537239
0.0018137667851784763, 0.0037665800894245453
0.0016913375182321798, 0.0037492075869213176
0.0015577631351458424, 0.003737733764379268
0.0014137599114215369, 0.0037534357231311555
0.0012608918508051732, 0.0038270517248223
0.0011012340158899141, 0.003995093537988076
0.0009370415564564369, 0.004291477381240182
0.0007704438202648111, 0.004737955799421488
0.08265785187906176, 0.0070027040444780395
0.08045578629907336, 0.006132935602131142
0.07800107542205503, 0.005396024526935999
0.07529420521206481, 0.0048064528973125985
0.07233829937745923, 0.0043702648866998615
0.06913955534195751, 0.004079494220159275
0.06570802913500132, 0.003910452341267577
0.06206076391372267, 0.003829325408427792
0.05822519158669906, 0.003802217883916262
0.05423974648827727, 0.0038027371300505793
0.05015381214020265, 0.003814102362515454
0.04602617444623593, 0.0038276902706449152
0.04192161702478412, 0.0038403819333181597
0.037905584906928795, 0.003852063519199611
0.03403721373545313, 0.0038636653082012177
0.030363068214833585, 0.003875558933516219
0.02691574994402872, 0.003886859815596429
0.023716072903245008, 0.003895623920365769
0.020775420914692255, 0.003899840714077749
0.01809795840652454, 0.0038986467559795437
0.0156827439697514, 0.0038928665508632682
0.013525765928781646, 0.003884648875375386
0.011621512131532667, 0.0038765410018957885
0.009962915621465753, 0.0038707880098549346
0.008540347173146837, 0.003868714232781838
0.007340740940519199, 0.0038701107071635915
0.0063476496509472825, 0.0038733081151269646
0.0055418619421352035, 0.00387593230151806
0.004902016093892893, 0.0038762158615500263
0.0044051757084164625, 0.003874070317340476
0.004027379616962483, 0.0038711944957532823
0.0037441896849585666, 0.0038701587105707796
0.0035316788853298254, 0.0038730395591840003
0.003368595899199844, 0.0038804934124798676
0.0032382685243614972, 0.0038914104635195314
0.0031285322570941713, 0.0039033593467810734
0.003030886713385427, 0.003913271065189924
0.0029396971225198352, 0.003918251612955982
0.002851511885646127, 0.003916790438845707
0.0027644350710196177, 0.003909595982877123
0.0026775180131623903, 0.0038995199073022795
0.0025901756762712422, 0.0038905605302872234
0.002501864764945037, 0.0038865207329001265
0.0024122933502910443, 0.0038899558718725065
0.0023217658287500416, 0.003901132838853176
0.0022310299070597687, 0.003917439495399833
0.002140329902871668, 0.003933831033053039
0.00204882730962966, 0.003944283587303993
0.001954914261126666, 0.003944155794050167
0.0018567313667390514, 0.003932593668007548
0.0017526860153202508, 0.00391461741621783
0.001641943161035573, 0.0039029073081418577
0.001524620353915106, 0.00391944168631231
0.0014015993004120942, 0.003995772511989713
0.001274268019532225, 0.00416914385678836
0.0011442414797063892, 0.004473902223300813
0.0010130734433402102, 0.004931791668916807
0.08168118251771496, 0.007281579542787752
0.0799658478587205, 0.006381401232290316
0.07797735962442072, 0.005616439151215052
0.07571045869315604, 0.005003167685264579
0.07316213184660435, 0.0045492100083115205
0.07033206255138204, 0.004247157851789401
0.06722349433950556, 0.004072490910132348
0.06384690994488576, 0.0039895497520873666
0.06022434081612047, 0.003962504486492693
0.056390739126867324, 0.003963629215621507
0.052394633157645004, 0.0039755261220778965
0.04829694975907443, 0.003989476810338687
0.044167529800484606, 0.004002540029781672
0.040079100078585936, 0.004014858613491082
0.03609907709377758, 0.004027557689417613
0.03228218617104096, 0.004040996253147124
0.028668807667287275, 0.0040540251937230985
0.02528745964938573, 0.004064258102374173
0.022157188555965365, 0.004069258358889146
0.019289544437684134, 0.00406797323041052
0.016690414238682512, 0.004061362137025783
0.01436175849889061, 0.004051951392233255
0.01230289341435955, 0.004042730384349735
0.010510246082829777, 0.004036325618272689
0.008976202184125629, 0.004034272745626
0.007688122150922238, 0.004036288950275973
0.006628499703429847, 0.004040356031007121
0.005775827484773575, 0.004043617331524097
0.005105520311742106, 0.0040439408498682845
0.004590819640844109, 0.004041200782263657
0.004203660717579939, 0.0040374122822221
0.003915530680911192, 0.00403564649567296
0.0036987979398130505, 0.004038410864845933
0.0035293060458655716, 0.004046550042344746
0.0033886007078520962, 0.004058832235081733
0.0032637978511218108, 0.004072464332690871
0.003146536664397977, 0.00408387856447709
0.00303198441485833, 0.004089666760725279
0.0029179607356445043, 0.004087994411572412
0.002804123314310802, 0.00407958944080882
0.0026911791903690536, 0.004067668831078508
0.002580126419204407, 0.0040567943478444874
0.002471804230204144, 0.0040513390658104
0.0023670691194179853, 0.004054303676859415
0.0022671329698197647, 0.0040661256546273
0.002173382197702127, 0.004083982961536935
0.0020863719347515883, 0.004102278352327074
0.0020052250935675368, 0.004114264309103078
0.0019279968581359611, 0.004114685006025595
0.0018522565555652902, 0.00410240756972159
0.0017756664361682647, 0.004082621854355681
0.0016965316437376045, 0.004068663135247655
0.0016140618745695652, 0.004083721396834419
0.001528260594217585, 0.004161149516553696
0.0014397427188266923, 0.004340256430411852
0.0013494816614259954, 0.004657002091415466
0.0012584900366694313, 0.005133552251803964
0.07933972887909616, 0.007603527780573245
0.07825225312280568, 0.006660076201186792
0.07687237824339267, 0.005855033939586498
0.0751868266736202, 0.005208148487527005
0.07318386156221068, 0.0047297245441290095
0.07085373910098179, 0.004413292509712889
0.06818968219611228, 0.004232801250009052
0.06519248648364175, 0.004149316556521048
0.061876299337937854, 0.0041237431347663
0.05827110209318914, 0.004126316438854564
0.054424380985917904, 0.004138916811885352
0.050400410655912775, 0.0041529721358464855
0.046276506255993936, 0.004166072819486595
0.04213580710009496, 0.004178945068475632
0.038057088546243734, 0.004193126258100365
0.0341055848492991, 0.004208974353864165
0.03033100915093282, 0.004224858178918423
0.02677069456104963, 0.004237571407369065
0.023452232316466128, 0.004243882735273242
0.020395281999754416, 0.004242380565230615
0.017613169108683293, 0.00423426144417896
0.015114355561879496, 0.004222730471607445
0.012903443550136534, 0.0042115691771474366
0.010980693163192131, 0.004204086713942064
0.009340638598534819, 0.004202195926661862
0.007970923682369782, 0.004205469911004088
0.00685261432756702, 0.004211237491657427
0.005961421502779801, 0.0042157381390647815
0.0052689944285365335, 0.0042161526690883844
0.004744182058220284, 0.004212276617388405
0.004354236788879299, 0.0042067057749806454
0.00406599897385227, 0.004203437630561494
0.0038476230078968994, 0.004205781323650174
0.0036717647575016947, 0.004214943967112503
0.003518267805141323, 0.004229496597230169
0.00337390644458421, 0.004246019529710588
0.003230998745162102, 0.004260067939950971
0.0030861073390708875, 0.0042673137145240216
0.0029389209285099983, 0.004265328453899825
0.0027912265643462706, 0.004254851976009856
0.002645917447756759, 0.004239725912743323
0.00250603776798669, 0.004225486851051346
0.0023741864804757875, 0.004217500732747135
0.0022526488998458947, 0.004219563082572976
0.002143716383596321, 0.004232446460039289
0.0020494492978933563, 0.004253005224831813
0.0019705608375382706, 0.004274710479998537
0.0019057822959835287, 0.004289560253917689
0.0018523379092251675, 0.004291199088690091
0.001806663462100285, 0.004277917878884476
0.0017651156131296268, 0.004255013826009121
0.001724647824545193, 0.004236660082731853
0.0016831826726271338, 0.004247790006935639
0.0016395942861193262, 0.004324584706686377
0.0015936101952535647, 0.004509803776554654
0.0015455610338019473, 0.004842217168587822
0.0014959703149344885, 0.005344755877700797
0.07570923659313986, 0.007949582422925055
0.07534314570538835, 0.006952936318289832
0.07467447098422898, 0.006098045248817395
0.07367972413434713, 0.005409250725469447
0.07233569774681052, 0.004900788695816597
0.07061985618584492, 0.004567679385710386
0.06851140802853567, 0.004381710742620234
0.06599727012518403, 0.00429922177015108
0.06308003053368, 0.004276534286732102
0.0597820455139417, 0.004281237978103488
0.05614859202651243, 0.004294505373857036
0.05224780461516978, 0.00430823007647256
0.04816650206201548, 0.004320915725039913
0.0440011957651398, 0.004334204192331238
0.039844952637505156, 0.004350272548850611
0.03577558537522087, 0.00436948775279649
0.03185331622366204, 0.00438948526873742
0.028125083553202476, 0.004405792265034099
0.024627703980229333, 0.004413943000383328
0.021389566772057146, 0.0044119732381433
0.018432009545091492, 0.004401456417469144
0.015770522535161657, 0.004386650155724592
0.013415453644697173, 0.004372546204804424
0.011371229705188994, 0.004363494976916232
0.009634650058575032, 0.004361991082332449
0.008193467549742301, 0.004367379553001688
0.007026932633735283, 0.004375953783845897
0.006107518073786216, 0.004382508224353318
0.005402646066461001, 0.004383115657740616
0.00487631996687601, 0.004377432226640489
0.004490665197419829, 0.0043689652421223905
0.004207436250381052, 0.004363171243864244
0.0039901842101731574, 0.0043646185270405586
0.003808218427042633, 0.004375089685365576
0.0036398997515721936, 0.00439287505190539
0.0034721617874556594, 0.0044136335124823544
0.003298601393015888, 0.0044316212407927566
0.003117742155532512, 0.004441124203329951
0.0029316387255343144, 0.004438803700142103
0.002744638770294069, 0.004425398511830497
0.00256219424041692, 0.004405664541890626
0.0023897164983878137, 0.004386557432087661
0.0022318329861244976, 0.004374873709606064
0.0020924575791874825, 0.004375566820073713
0.0019750664762457084, 0.004389920039642862
0.0018823693964713278, 0.004414343552019067
0.0018150363378522474, 0.004440973650369768
0.0017710213884763438, 0.0044600016871918675
0.0017462081391424935, 0.004463504138997311
0.0017353359916938605, 0.004448953006551979
0.0017329069034316168, 0.004421734319585612
0.0017340507965991241, 0.00439700866884338
0.0017350536956728972, 0.0044018629501350525
0.0017334564725803975, 0.004476186057156229
0.001728058353406999, 0.004667453897755241
0.0017186425738003812, 0.005018347556960419
0.0017053986504050947, 0.00555279317423439
0.07064319367627264, 0.008306090539283686
0.07107237218591456, 0.00724937194629336
0.07120583785163888, 0.006336957991584565
0.07100772472193917, 0.0055992602464409414
0.07044026931236616, 0.005056003282167085
0.06946398437509545, 0.004704553456208957
0.06803873547932815, 0.00451398327817065
0.06613160098571716, 0.004434329925914635
0.06372802129234194, 0.00441595130040435
0.06083828865558183, 0.0044232836773571566
0.057502928489004186, 0.004436956234842955
0.05379364765564374, 0.004449739452144841
0.04980858751754606, 0.004461448907043166
0.04566078914314862, 0.00447497224621158
0.0414607959663043, 0.00449338173390542
0.03730107842068705, 0.00451708477683466
0.033253364580690246, 0.004542697569152585
0.029374891252235233, 0.004563926822983085
0.025712470240394473, 0.004574508788784801
0.02230407109298787, 0.004571683656381194
0.01917992848327819, 0.004557595398036172
0.016363417793850307, 0.004538036609368366
0.013871383164160126, 0.004519723693692117
0.011712976447548401, 0.004508492472610871
0.009887520934766674, 0.004507695101226144
0.008382755318047556, 0.004516359283584687
0.007175748276424436, 0.004529248080024349
0.006235351836227186, 0.004538981533173421
0.005524439898887859, 0.004539946831377032
0.005001897715110571, 0.004531575134034045
0.004624468797955598, 0.004518733262426941
0.004348546474007411, 0.004509045313442849
0.004132811788594627, 0.004508923280779358
0.003943187325322039, 0.004520978092856458
0.0037569153288699074, 0.004543100684644156
0.003561708782571977, 0.004569676045777042
0.003353058130549102, 0.004593169394238441
0.0031318821820009975, 0.004605918182575942
0.0029028570592543154, 0.004603286826497479
0.0026730340942303864, 0.004586007295369564
0.002450525183050595, 0.004560111694750015
0.0022432374249886974, 0.004534490415880536
0.0020580130248198545, 0.004517838817101288
0.001900587955173195, 0.004516654696353998
0.0017757449922507914, 0.0045329235551125925
0.001686823544917075, 0.004562467656869272
0.0016342425319673083, 0.004595621493107284
0.0016147818052252728, 0.004620150077862522
0.0016224639616319852, 0.004626097186283687
0.0016497616926799267, 0.004609960619020591
0.001688768773954934, 0.004577289204712174
0.001732318311903894, 0.004544363545093351
0.0017747181578051541, 0.004540690664651613
0.0018120048145713245, 0.004610588203706291
0.0018420838827240195, 0.004807425721204021
0.00186440005913001, 0.005178848599987697
0.0018790838502321951, 0.005749883674695878
0.06443080394073089, 0.008623044420042018
0.06563534089541252, 0.007509275446922518
0.06657440108866336, 0.006540279277445062
0.06719928549786096, 0.005753466133551957
0.0674561489137969, 0.005175302629544628
0.06728568666434263, 0.0048064358711049126
0.06662398268009506, 0.004613079144899524
0.06541268012792062, 0.004537988960018122
0.06361428994905445, 0.004524807765203493
0.06122191518222019, 0.004534795903766184
0.05826770644815441, 0.004548418965590881
0.054825276350408576, 0.0045596909072617535
0.0510043260547066, 0.004569947353220208
0.046935885336853014, 0.004583466875759791
0.04274941602885323, 0.004604405640463556
0.038552426607879484, 0.004633300752863976
0.034427612616280405, 0.0046655871295545005
0.03044195208883683, 0.004692714212840175
0.02665207479272609, 0.004706131967928326
0.023105681589400233, 0.004702076434078616
0.019842284994301226, 0.004683440916079741
0.016893650333691734, 0.004657954309982488
0.014283637357288397, 0.0046344368758869485
0.012026570326775243, 0.004620544192939352
0.010124578335639189, 0.004620744014632823
0.008565435681165605, 0.0046337180273015284
0.007324025220073452, 0.0046522916795691234
0.006365779837250179, 0.004666246728151188
0.005649468352775236, 0.004667739894355916
0.005129451401301054, 0.0046558984309845175
0.004757723208487631, 0.00463737207298983
0.004485869475029091, 0.004622591033219548
0.004268128564790828, 0.004620286516410341
0.004067494704283578, 0.004634057714556728
0.003860713242750806, 0.00466126281656103
0.0036368888938036626, 0.004694757103261017
0.0033937321591381276, 0.0047248851248078046
0.003134438936477243, 0.004741615810309989
0.0028658391762991643, 0.004738717456122859
0.002597053649271412, 0.004716932943277062
0.0023382384107347876, 0.004683876278129934
0.002099380483649506, 0.004650736687316683
0.0018894113814884655, 0.004628363859488234
0.0017159522795893382, 0.004625011195500726
0.0015851833557445345, 0.00464348804303201
0.0015010828917422548, 0.004678928085484546
0.0014637263815175047, 0.004719530928258231
0.001468540821773084, 0.004750211710849098
0.001507462845687346, 0.004758757646015458
0.0015704634354654673, 0.004740769328292218
0.0016470118499722823, 0.0047021499120341054
0.0017274733230252578, 0.004660304708516523
0.0018040834674826597, 0.004646986312766315
0.0018713993039946332, 0.004710965013388148
0.0019266210610399234, 0.004911904391598994
0.0019691816246460722, 0.005302869115383542
0.00199951235188158, 0.00590986980170547
0.0578101317963727, 0.008856488043341555
0.05966847455680422, 0.007698311413432803
0.06131195267474721, 0.006682839641699281
0.06268100497077708, 0.005854382672228424
0.06370691657931632, 0.005246502730367066
0.06431070549693572, 0.0048637308341383705
0.06440341140665667, 0.004669778056708475
0.0638986379984712, 0.004600205916413748
0.06273253348353451, 0.004592209059937414
0.06087731103634691, 0.004604408874278064
0.0583533867531711, 0.004617569481818205
0.05523364296571697, 0.004627099195465529
0.0516375205143294, 0.004635741278518791
0.047712748781645276, 0.004649030651238092
0.043606323348219046, 0.00467225272314688
0.039438821191190784, 0.00470621664366231
0.03530159604881318, 0.004745245769280518
0.03126940712732755, 0.004778421100211301
0.027407351300152243, 0.004794707145135802
0.023772018979944985, 0.004789253077597612
0.02041175105539741, 0.004765788226728272
0.0173665408964448, 0.004734107039868095
0.014667295594067261, 0.004705170904020368
0.012333674330251341, 0.00468849727524578
0.010370843892622418, 0.004689796266716976
0.00876687589924484, 0.004707475232131008
0.007494910165274607, 0.004732311690170289
0.006517784395734173, 0.004750956380251965
0.005791340678825016, 0.004753065130692028
0.005266798172608915, 0.004737427361363979
0.004892827514867499, 0.004712692892402088
0.004617507980831853, 0.004692377068425642
0.00439169748981097, 0.004687656690927843
0.004176326549685543, 0.004703081482429649
0.003948351371618135, 0.004735375291006843
0.003698677407032609, 0.004775841711248823
0.003427140578083836, 0.004812721709057034
0.003138524530968442, 0.004833543681622307
0.0028406987427853398, 0.0048304037600770885
0.0025435686284623164, 0.004804091883100694
0.002258131240265198, 0.004763919846192617
0.0019955805821863636, 0.00472341169419501
0.0017665227514605465, 0.0046954678409608305
0.0015803770457890225, 0.004690019290031965
0.001444758492535083, 0.004710702468916917
0.0013643329518509136, 0.0047519661555027026
0.0013389246422932887, 0.004799832849888191
0.0013627795015082296, 0.0048363246560583825
0.0014259890903916069, 0.004847090762416379
0.0015163044455354178, 0.004827127878793692
0.0016208588656344833, 0.0047829359910911695
0.0017278112353719356, 0.004732906573146553
0.0018275510578335914, 0.00471044586525662
0.0019133745164512418, 0.004768024996694134
0.0019820248605500164, 0.004970993859144145
0.0020332002139150196, 0.005377475748291697
0.0020678911603496082, 0.0060141921238171595
0.050752663345216664, 0.00900133688356273
0.053146123147299294, 0.007813312805868286
0.05539338212359936, 0.006763352744498329
0.05742679292440586, 0.005902314429769672
0.059164899733287944, 0.0052709665845023365
0.060510153529802733, 0.004878235083063738
0.06134821705475826, 0.004685819491456047
0.06156278339280564, 0.004622448349478421
