flux,fluxerr
0.5703177536126696, 0.04412999954459675
0.5415702985517362, 0.037232209076868826
0.5122065370918857, 0.030955047026239864
0.4823578310797085, 0.02535869119176189
0.4521738899429552, 0.020512159676771873
0.42182437179345844, 0.01649379984841386
0.39150060027181294, 0.013381568754157505
0.3614174046649165, 0.01121546073223046
0.33181509062794656, 0.009925975983788204
0.3029605853964825, 0.009292708804869548
0.27513781207171406, 0.009025249031058707
0.2486224792867977, 0.008896342939602092
0.2236534400154369, 0.008792513371327759
0.20040386931042364, 0.008685953765105172
0.17895873728055758, 0.008585934912455533
0.1593242479675415, 0.00850567566375245
0.14145707613947409, 0.00844965005113339
0.12528321407198428, 0.00841619106464788
0.11070992747389112, 0.008402480526311304
0.09763936973743031, 0.008405336599678863
0.08598758740234567, 0.008422519617055695
0.0756914692042275, 0.008454427310365671
0.06668724228354117, 0.008504934652418248
0.05888194118487654, 0.008575189464801616
0.05214295308340328, 0.008655479318783599
0.046315196748872, 0.00872391461732194
0.04124022830792286, 0.008754267491231966
0.03676997559991079, 0.00872987787408323
0.03277956896698477, 0.008652218130370896
0.029180225092524884, 0.00854045881327772
0.025929043046876966, 0.008426148766291308
0.023026460309515186, 0.00835005678091102
0.020506356303357592, 0.008354055966431333
0.018419693000025276, 0.00846389586030037
0.016802216155413878, 0.00867287793362075
0.01564834699088362, 0.008939527457437901
0.014912745625588008, 0.009208846467198899
0.014520875473887666, 0.009438073415778275
0.014379663749297894, 0.009610528324061795
0.014388056929817091, 0.009733811251147499
0.014447530018642608, 0.00982429058504868
0.014472598912696331, 0.009883964684309856
0.014400137658218086, 0.009883031557011103
0.014191464051564696, 0.009770179788859877
0.013828335318074788, 0.009511495441799002
0.013308345954396778, 0.009146953887057477
0.01264041260012051, 0.008864223517350323
0.011840322675407675, 0.009054962559678848
0.010926372359023447, 0.010205292679645109
0.00991611327244275, 0.01258227976522336
0.008825574354388273, 0.016134476604299803
0.007669345002567792, 0.020689664357241417
0.006460678652605134, 0.02609494155193167
0.005211589740551648, 0.032238916341623895
0.003932944442465932, 0.039039345328327514
0.002634545559396609, 0.04643103430968959
0.0013252118978049593, 0.054358542592577455
0.6124613188035063, 0.04155132211572792
0.5806748626717452, 0.0347635705898779
0.5484422292455985, 0.028616539559582686
0.5158987370554422, 0.02316179887590634
0.4831959355099723, 0.018459599889458302
0.4505028700040376, 0.014581136253667458
0.4180074294135844, 0.011601959149140998
0.3859177808230708, 0.009565325384498445
0.354463895972675, 0.008400993907629592
0.32389825708229303, 0.007872700924558728
0.2944862781280364, 0.007673332530162641
0.26648186957181247, 0.007576461519481265
0.24009973080957678, 0.007482212344013785
0.2154874994379738, 0.007377319089783023
0.19270506006628124, 0.007280121931598537
0.17173979585754742, 0.007206447657945571
0.15254276265252145, 0.007159007873058317
0.13504825601767279, 0.007133176319460597
0.11918292599751974, 0.007124040541880932
0.10487542537301914, 0.007127483936210232
0.09206887014104043, 0.007141251109432568
0.08072241315473419, 0.007166613685344164
0.07078888432965247, 0.007209369376046652
0.06218664369408941, 0.0072730491305666185
0.05478824892842149, 0.007349696722411413
0.04843508587887446, 0.007417919422477748
0.042956283094923324, 0.0074509640828477035
0.03818561602123345, 0.007431404148581561
0.03397806939491856, 0.007359906557998887
0.030226412138468876, 0.00725432990459971
0.02687383525176896, 0.007144181837577501
0.023911067805178318, 0.007068454726793473
0.0213642870558261, 0.0070685058666695765
0.01927698882799659, 0.007170365114372565
0.017677475033282083, 0.00736692156052993
0.016553156827387224, 0.0076149684318229435
0.0158522677041794, 0.007858164810408252
0.015494435011603467, 0.008054913696764003
0.01538137010221109, 0.008193243744255365
0.015407474770682415, 0.00828875074061144
0.015470412847842271, 0.00836702226204191
0.015481686289082785, 0.008436417343612914
0.015375997915078442, 0.008466413647953454
0.015113308561184351, 0.008396777558594458
0.01467473677627012, 0.008177959890217273
0.01405783886651831, 0.007829747230640166
0.01327196339767193, 0.0075223245890461785
0.012333660556644832, 0.007653052634004397
0.01126217793561327, 0.008741268952667757
0.01007610342075768, 0.01106042504979043
0.00879255524164383, 0.014535737498871878
0.007427251911354925, 0.01898840863978545
0.005994604057397505, 0.024276043719851814
0.004507800904366886, 0.030301471952541858
0.002978891694514039, 0.036995139850507806
0.0014188623232037783, 0.04430225620994513
-0.00016229255229071094, 0.05217584764148762
0.6496611106825436, 0.03916775843170496
0.6155673531506333, 0.032575376724712286
0.5811649615553799, 0.026628859130747955
0.5465865530478496, 0.02137196756571431
0.5119787898035825, 0.01685667251098508
0.4775033700178681, 0.0131464763799637
0.4433380776620607, 0.010312310094852945
0.4096778941519689, 0.008398134845319982
0.3767361746829317, 0.007335111829667495
0.3447450693255587, 0.0068813627247598114
0.31394669740735515, 0.00672546869831182
0.2845709792036557, 0.006647549502171382
0.25681053309315816, 0.006559435314725488
0.23079547442704393, 0.006457339946106677
0.20657569195648226, 0.006364356399640227
0.18414034103789645, 0.006296920095512093
0.16345751411997006, 0.0062561101630403
0.14449127339224593, 0.006235459990383747
0.12720486696141522, 0.006229058660029537
0.1115637482044378, 0.00623255475840616
0.09754009438258247, 0.0062438458284900114
0.08510996521144762, 0.006264639981570195
0.07423462890729599, 0.006301620155268615
0.06483814598806036, 0.006359572237965711
0.056797432776469814, 0.006431785818162506
0.04995197920872197, 0.006497772598305831
0.04412021543420897, 0.006531268744876802
0.039118547041979354, 0.006514991879876954
0.03478084847732206, 0.006449229587636818
0.03097793512107956, 0.006350578610564374
0.027632455635185346, 0.006246374546445823
0.02471588113928631, 0.0061733018592200995
0.022234930021716594, 0.006171252371052577
0.02021323740195994, 0.006265878951720788
0.018662386113247314, 0.006450192901700738
0.017559718151798458, 0.006681107847383728
0.016849874839097015, 0.0069028009840263645
0.016453918039539477, 0.007075201449162092
0.016278568981154963, 0.0071892404165974704
0.01622539075371598, 0.007264924074364454
0.016199950046956704, 0.007333113364047317
0.01612098538709526, 0.007406329178302738
0.015928508970208335, 0.007454704245988596
0.015585504501534087, 0.007414150685525307
0.015074223954437835, 0.007226742478479797
0.01439193137217962, 0.006898988954534472
0.013546703607872884, 0.006585099196157903
0.012553273266268141, 0.006676718153591017
0.011428945347532835, 0.007705391667220764
0.010190548861085948, 0.009941843666950475
0.00885369047287097, 0.013296490843615024
0.0074328042991687006, 0.01759255833603513
0.005941222604697013, 0.022699962891740633
0.0043912427159850794, 0.028534274719434007
0.002794190337340371, 0.03503660890281721
0.0011604794495912564, 0.042160905794521274
-0.0005003310389928136, 0.04986748351924167
0.6817722004883386, 0.038006928692237166
0.6465032376885592, 0.03153252263035663
0.61095805562879, 0.025704247603655837
0.5752623384126259, 0.020561838976043027
0.5395543282462177, 0.016152919291347403
0.5039856654802366, 0.012536626687172902
0.4687222759278339, 0.009780445025251801
0.43394530787118885, 0.007927183859066298
0.399852120805028, 0.006908752437361741
0.366656633909816, 0.006483868377151084
0.3345818703865941, 0.0063432785687053865
0.30384124490570846, 0.0062720544136940955
0.2746173818232407, 0.00618694732115607
0.24704087310366593, 0.00608712497290925
0.2211761077838613, 0.0059967407308017745
0.19704209375506893, 0.005932129803888733
0.17465060903763316, 0.005893852210280041
0.1540170764254451, 0.005874994762481892
0.13515516417891268, 0.00586945157311461
0.1180713567129995, 0.005872886265519022
0.10276223527844477, 0.005883281486867903
0.08920998875185532, 0.005902424535952622
0.07737211670250313, 0.005937092881498967
0.06716977244811949, 0.005992306776442894
0.05848156548550365, 0.006061826066889643
0.05114661224743451, 0.006125826453829436
0.04497608456401188, 0.0061587209667548935
0.03977263025155449, 0.006143634673732879
0.035351151287333724, 0.006080762369411563
0.03155954040207048, 0.005986025226704603
0.028294643140305945, 0.005885602225567423
0.025499644534898176, 0.005814790179861759
0.023150551532857517, 0.005812271893683158
0.02123972727686604, 0.0059030942043836136
0.01975369004937941, 0.006080455893820808
0.018656849016475328, 0.006302167035249949
0.017892533031310522, 0.006513655790450349
0.017389424429521703, 0.006676069669037265
0.017068083821935504, 0.006781347829075071
0.01684744577956253, 0.006850398921210335
0.016651308195222234, 0.006915052319335292
0.016414832054697178, 0.006988791993401039
0.016090262812591, 0.007042386669726422
0.015647962267572535, 0.00701158755001413
0.015073484062485381, 0.006836791207862554
0.014364242844445362, 0.006520219182756571
0.013526224049034564, 0.006208717048284277
0.012570723892282573, 0.006287127330950854
0.011511143828213834, 0.0072853954499046214
0.01036058090596773, 0.009470602379996269
0.009131222698117433, 0.012749900188381435
0.007834379772175546, 0.01695059617160585
0.0064805361625014934, 0.02194946912800317
0.005079397264130766, 0.02766832715443426
0.003639935273636519, 0.034053417890660825
0.0021704322924685944, 0.04106296299354606
0.0006785212020686395, 0.04866096731794281
0.7075005655325033, 0.03908177028864182
0.6723913669548556, 0.03244584177310396
0.636882767410238, 0.026467927474785234
0.601094010384312, 0.021189920356389547
0.5651568868807286, 0.016661873450541743
0.5292165998486636, 0.01294565379409639
0.49343267845681715, 0.010111511278632931
0.4579799448119513, 0.008203982089203097
0.4230495354450282, 0.007153623640791337
0.3888493940343883, 0.006713556723064932
0.35559818856009995, 0.0065668649036261136
0.3235097379698676, 0.006492630077703315
0.292775364974328, 0.006404791547516602
0.2635462116964198, 0.006302058830766544
0.2359219749343228, 0.006209027531400506
0.20997130016936624, 0.006142425697157907
0.18576605918122804, 0.006102858934745513
0.1633844010964481, 0.006083283125716616
0.14289551282834562, 0.006077475447874968
0.12434546443320972, 0.006081000430603199
0.10774961030623498, 0.006091782351653771
0.09308930963660347, 0.006111651330612473
0.08031160350458305, 0.006147576021751258
0.06932947885298714, 0.0062047064737973875
0.060020082275002544, 0.006276572854713537
0.05222101471492608, 0.00634269200624598
0.04573652493970559, 0.006376641287921908
0.040356446474222596, 0.006360999463791624
0.035877333430347325, 0.006295977497073626
0.032123544956903165, 0.006198037138373808
0.028963683700081167, 0.006094244331930359
0.026308998398565552, 0.006021078524176288
0.024101251411799432, 0.006018499952988165
0.022299235384938013, 0.006112377354401697
0.020863710586881648, 0.006295700865152523
0.01974700106187964, 0.006524928706439417
0.018893233501351536, 0.006743714975749892
0.01824175211071731, 0.006911890967737295
0.017730591188866746, 0.00702100495450808
0.017299942167269333, 0.007092442173963985
0.016895627824125143, 0.007158847192140524
0.01647259284971505, 0.007234037532880761
0.015997944919844537, 0.007287980393878285
0.01545123908484502, 0.007254777995445912
0.014822436765865261, 0.007073547914365246
0.014109631558665714, 0.006747282928886498
0.013316804062818634, 0.006427733543972218
0.01245159824559263, 0.006510190437586904
0.01152313233085432, 0.0075372426384436916
0.010540323953783811, 0.009782516450758576
0.009511449416614807, 0.013151057714413135
0.008444165694511164, 0.01746477783156498
0.00734554704322252, 0.02259572466540431
0.0062221196955408176, 0.028462186720551723
0.005079894739473411, 0.035007706084598036
0.003924399264385011, 0.04218827023486477
0.002760705860122235, 0.049965927628217256
0.7289744884822656, 0.04219482397093236
0.6949860640603783, 0.03511118622758747
0.660358076886343, 0.028712215986199
0.6252038661858073, 0.02304747204089102
0.5896505600739151, 0.018175588359418352
0.5538401199979224, 0.014168004889349065
0.5179304506786196, 0.01110474925143132
0.4820965792476899, 0.00903703495595205
0.44653190712267377, 0.007892541888445782
0.4114490277263669, 0.007408004133353505
0.3770748420047076, 0.0072434048947423
0.34363742981357265, 0.007159887093338321
0.3113511341334107, 0.007063284383490032
0.2804016287000912, 0.006951365851848988
0.25093684567763025, 0.006850301296970602
0.2230867103779499, 0.006777949674616243
0.19699339560726553, 0.006734824518680283
0.17280544725513608, 0.006713310033836126
0.1506510853698699, 0.006706800151977672
0.13061470728356162, 0.00671058547970268
0.11272672817429277, 0.006722435165881605
0.09696405678818917, 0.006744357174260941
0.0832602472876195, 0.0067840483482089955
0.07151755092514417, 0.006847224323168331
0.06160941285666081, 0.0069267475776946495
0.05336992166556617, 0.006999952062081878
0.046594555668400046, 0.007037580857723613
0.04105852878096563, 0.007020351945513998
0.036538165465096556, 0.006948508968015855
0.032832214578975984, 0.006840252707216387
0.029778801286390866, 0.006725464386281973
0.027255469021004845, 0.0066444408477845645
0.025169390999718957, 0.006641402728003975
0.023447375989795276, 0.006745055964828546
0.022027139684662574, 0.0069477284635726
0.02085173407236457, 0.007201229693935291
0.0198686903052645, 0.007443094373316136
0.0190303660353409, 0.007628663807057802
0.018294328449104294, 0.007748281605109046
0.01762375814186371, 0.007825263237627734
0.01698787574946763, 0.007895509990578307
0.01636239229720796, 0.007974494097698778
0.01572984822530483, 0.008029811261789244
0.015079178624059733, 0.007990075176877427
0.014404626167806594, 0.0077899147078479385
0.013704598627832347, 0.0074342642370373805
0.01298054368501224, 0.007089654352725816
0.012235836540121534, 0.007183128732433898
0.011474680229738597, 0.008295279241762843
0.010701210680957328, 0.010718125337949006
0.009919224360801972, 0.014348545546812102
0.009132188212377441, 0.018990657321863006
0.008343261163766984, 0.024500902294128
0.007555314414871959, 0.03078570024606288
0.0067709505652019985, 0.037779257932583965
0.005992521642648293, 0.04542973747743264
0.005222146093585966, 0.0536922963490352
0.7463112955183154, 0.04617821519317866
0.7138374129386575, 0.03852598919076334
0.6804555435890377, 0.031589312703418984
0.64627203447639, 0.025428176578648896
0.611408771807062, 0.020112957477148488
0.5760044983187348, 0.01572832183688298
0.5402162218133408, 0.012368114708832272
0.5042207205450887, 0.010093619750866756
0.46821615112957926, 0.008829559546737992
0.43242330493629827, 0.008290407589165749
0.39708176916920157, 0.008104546903085551
0.36243870107618237, 0.00800937428715433
0.32873602580141165, 0.007900812462473771
0.29619764685029804, 0.007776294250273027
0.2650221190918782, 0.007664581683527168
0.2354020393758753, 0.0075850352001095665
0.20755082950503323, 0.007537750141847009
0.18168737384767714, 0.007514089069548465
0.1579966777193624, 0.007506855461833165
0.13659677569805137, 0.007510983988039714
0.11752849284487434, 0.007524057621951518
0.10076196363017033, 0.007548378418400289
0.08621684861573486, 0.0075927899056345075
0.07378497979976174, 0.007663981331888694
0.0633363998096663, 0.007754010545859562
0.05470194658268973, 0.007837168817757928
0.04766861227003385, 0.007880161009927368
0.041997247548006475, 0.007861043650228012
0.03744409451206192, 0.007780079228692445
0.033782242266296406, 0.0076578274250935115
0.030819152533949755, 0.007527936586435112
0.028398986412235098, 0.007435896089904543
0.026396133477534615, 0.0074319015095059195
0.024709118499427675, 0.007548756834417637
0.023257029400972996, 0.007777894459910522
0.021977418420645146, 0.00806441508587008
0.020824050082521244, 0.00833701814317323
0.01976426272980515, 0.008544658486992299
0.018776364470929965, 0.008676196535460845
0.017847082398243896, 0.008758199834604614
0.016969052707122474, 0.00883191716549117
0.016138340992583745, 0.008915827910467347
0.015352183957713254, 0.008974404557421788
0.014607926598015611, 0.008928205488513358
0.0139029668769739, 0.008704787287240624
0.013234815503630527, 0.0083105814483321
0.012601156252146382, 0.007931067505229877
0.011999906896773728, 0.008036114376844553
0.011429267528880918, 0.009258668747884715
0.010887638904118285, 0.011914511462891023
0.010373513354645638, 0.015887145884088745
0.009885461302190405, 0.02095580145349084
0.009422127271100034, 0.026955843231706585
0.008982226101380636, 0.033777772175139734
0.008564539352361351, 0.04134325637948535
0.008167911886626439, 0.049589938570802766
0.007791248625688179, 0.058463734109239135
0.7587333972327106, 0.049806679099925394
0.7277323767166854, 0.04164242904952603
0.6955960552850531, 0.03421865081240289
0.6624228903258554, 0.027605385154639075
0.6283284512690868, 0.021884392161588936
0.5934470171092568, 0.017153265481418548
0.5579332941275564, 0.013519574936069024
0.521964261873725, 0.011055057363772021
0.48574115568008436, 0.00968239640922477
0.4494911700630801, 0.00909493401795227
0.4134645093083178, 0.008890781206875479
0.3779246707286672, 0.008785063086442505
0.3431373166633884, 0.008664975444994361
0.30935919667620804, 0.008528290812327111
0.2768322669646349, 0.008406571353477327
0.24580304928289085, 0.008320578458560008
0.21654665240437174, 0.008269785235715494
0.1893424959791167, 0.008244402044812063
0.16442281195772276, 0.008236630196797436
0.1419309302037745, 0.008241081674461848
0.12191327345891337, 0.00825517260123967
0.10433326527287756, 0.008281515913520075
0.08909991152635464, 0.00833017294474783
0.07609853168767265, 0.00840892871138388
0.06519901993830932, 0.008509148115452682
0.05623204241430286, 0.008602134470638156
0.0489794316576446, 0.008650560064311369
0.04319109315738739, 0.00862982056141073
0.03860642986501892, 0.008540184913134779
0.03497566537894875, 0.008404484424952932
0.032077832212629734, 0.00825994174074084
0.029725932142594946, 0.008157037793628063
0.02776470057376899, 0.008151861384958789
0.02606879427703732, 0.008281360919149066
0.024543237358770533, 0.00853612649571012
0.023123504751795726, 0.00885450422139645
0.021771678046300032, 0.009156282869816172
0.02047101950106911, 0.009384038783835738
0.019220597881018986, 0.009525305144407649
0.01803000336998681, 0.00961024031690056
0.016914121642652876, 0.00968592730221783
0.015887941351843377, 0.009774312034469015
0.01496189625075207, 0.009836943644450334
0.014140286625694977, 0.009786203095683942
0.013422293924174341, 0.009542165449314473
0.012803265821007966, 0.009111928532711944
0.012275979198403971, 0.008698397560742683
0.011831887606971453, 0.008812186509997572
0.01146232829020138, 0.010136570107196208
0.01115925656291417, 0.01300901493166313
0.010915288643195848, 0.01729858891945844
0.010723650308457018, 0.022760082388062864
0.010578134082004644, 0.029208634185926414
0.010473059142427306, 0.03651954508595099
0.010403233792947124, 0.04460251491018486
0.010363920338950902, 0.05338516391946165
0.010350802229531463, 0.0628046441961366
0.766338705667206, 0.05269421924791547
0.736723687748094, 0.04412976494559639
0.7057967431450526, 0.036322326557284415
0.6736480301504199, 0.029350481073215317
0.6403860068215835, 0.023305709242774385
0.6061392760624771, 0.018296710946610503
0.5710585788794418, 0.014442986523844592
0.5353189463733123, 0.011825675929529716
0.49912202145703694, 0.010366438488888574
0.46269816573083455, 0.009741280376022161
0.4263042712525467, 0.009523170508625632
0.3902153037148153, 0.009409000423551785
0.35471457505026827, 0.009279200269132185
0.3200841075972862, 0.009132277141950699
0.2866000049112223, 0.00900234278629762
0.2545519328913028, 0.00891128772987309
0.22426490042472091, 0.008857897272210997
0.19606702360951475, 0.008831298397365133
0.17022705588745293, 0.008823175756675442
0.14690553396487524, 0.00882789200380823
