flux,fluxerr
0.06372959395228835, 0.01001833242805423
0.06327306341891144, 0.008860962497503906
0.06251007601141494, 0.0077853202586319415
0.0614238637816275, 0.006820255204218784
0.06000114813429907, 0.00599594529257637
0.05823336226587983, 0.005338786887651006
0.05611811686861193, 0.004862398738092554
0.05366094437277221, 0.004557899109679124
0.050877175173054734, 0.00439215116608825
0.047793474772981986, 0.00431932632056947
0.04444869374450452, 0.004296566952209582
0.040893186093997405, 0.004293853770494281
0.03718775103295174, 0.004294799386364893
0.03340349186560259, 0.0042923052811147475
0.02962316668096702, 0.004284388716427918
0.02593961302615045, 0.0042718005785987315
0.0224481318568301, 0.0042573501860554905
0.019237411109602684, 0.004244844568190822
0.01638116360454999, 0.004237918940871607
0.013930973730802668, 0.0042392923794398974
0.01191176362698083, 0.004250095120968877
0.010319990079232769, 0.004269024864750072
0.009122572433609838, 0.004291072372878916
0.008261504009604284, 0.004309128804789315
0.0076639750629028235, 0.004318118079198353
0.007252865513634899, 0.004317552552880943
0.006957054645768698, 0.004311079796348149
0.006720735898853398, 0.004303928085882952
0.006508377956575178, 0.004300853676780181
0.006305571421773597, 0.00430509882662152
0.006114420582279206, 0.004318435702273287
0.005946217277816228, 0.004340748597014921
0.005813165892751932, 0.004368845512837098
0.005717559585877977, 0.00439652229658304
0.00564454602892096, 0.004416168074472219
0.0055664006393682484, 0.00442205375293876
0.005450882100518469, 0.004412849340775073
0.005269626150924734, 0.0043916854966437385
0.005006311365735258, 0.004364005518735268
0.004660542371875399, 0.004335396140094135
0.004244637026039188, 0.004310763221082861
0.003779096890634232, 0.004293293802291139
0.0032902397303235845, 0.004284029940632254
0.002810037029259643, 0.004282646290453998
0.0023722657859560512, 0.004288788659564348
0.0020037912895109976, 0.004303035777746846
0.0017163150326942607, 0.00432596415332171
0.001507051557972423, 0.004357011628656558
0.001366786673220191, 0.004394360126665315
0.0012846661413699505, 0.0044366612472777015
0.0012496760844247232, 0.004486044297739145
0.0012516184690488563, 0.004551299950120796
0.0012814646837379325, 0.004652242373092608
0.0013313371632019968, 0.004822150997350815
0.0013944856530050374, 0.0051031608190243525
0.0014652877460685503, 0.005533202497676895
0.0015392282171442177, 0.006131521691502942
0.06839033722142303, 0.010709968489790597
0.06830831288676334, 0.00935122008185519
0.06787031326103071, 0.008078926084036299
0.06704898296099539, 0.0069308217995790395
0.0658203455023246, 0.005948818953798864
0.06416539504643712, 0.005172767837885181
0.06207204992164595, 0.0046263991617669364
0.059537530131876105, 0.0042991420205186264
0.05657108313115483, 0.004141558263933091
0.053196722335677724, 0.004086749868173707
0.04945550841145827, 0.004077584527527178
0.04540632982078537, 0.004080165556644415
0.04112648945812911, 0.004080844528715267
0.036712578980195275, 0.004076317268756094
0.032280733728269034, 0.004066488983994657
0.027961995901273178, 0.0040520004846874465
0.023889464567156203, 0.004035228968983161
0.02018357470574831, 0.00402001704569045
0.016939866484657302, 0.004010637520776411
0.014220480075462316, 0.004011184485624124
0.012049482906892924, 0.00402457393137597
0.010411726666638994, 0.004050436458355817
0.009252466286097218, 0.0040815892136420095
0.008484580353497435, 0.004106369352672353
0.008003304717421124, 0.00411641700927024
0.007701464762849857, 0.004111420445746366
0.007484524307815575, 0.004097871671358361
0.00728408024649722, 0.004083965596372827
0.007064093649054061, 0.004076160332174835
0.006820539898934299, 0.004078305685599156
0.006572922691595583, 0.004092925343583962
0.006351766587115106, 0.004120883678132434
0.006184914748360314, 0.004158588449217766
0.006080598836767151, 0.00419714605378659
0.006016742830395362, 0.0042246262521470086
0.005949119308318052, 0.004232000869573274
0.005826123695262068, 0.004217776216830685
0.0056035782110300135, 0.004187836439902487
0.005259134757584493, 0.004151093829699653
0.004798533933715896, 0.004115532315715672
0.004248319257794585, 0.004087281631039433
0.0036460352395367357, 0.004069225375480049
0.0030345413591107424, 0.0040606414773918425
0.002460758243186321, 0.004059130227026557
0.001969541709570459, 0.004063570534400927
0.0015907281082197372, 0.004076082540462996
0.001327169243335567, 0.004099773211603124
0.0011584442117910539, 0.004135564007048759
0.0010573168463314637, 0.004180571125080487
0.0009990176992544883, 0.004229751921495454
0.0009636725153641627, 0.0042799285416764135
0.0009376690351439491, 0.0043347078769596335
0.0009131907707063851, 0.0044135819849066915
0.0008866680969501464, 0.004560030006916347
0.0008572662616799668, 0.004837420070778804
0.0008254695453218088, 0.00530644319967642
0.0007919851352800811, 0.005996754003428477
0.07267315038279949, 0.01141086768310337
0.07293917616798379, 0.009870409877203562
0.07281107812910602, 0.008419863292357147
0.0722510817602556, 0.0071046974108203
0.0712242219977686, 0.005977544459880867
0.06970018926515263, 0.0050916117052590025
0.06765564095439171, 0.00448184639483982
0.06507706956050058, 0.004136503052615896
0.0619643299780094, 0.003988423657810794
0.05833491599336615, 0.003948887459710717
0.054228504787335395, 0.003948143450935529
0.04971083262457218, 0.003951159861716619
0.04487790309691601, 0.003949039863698203
0.039858117611831806, 0.003942679905773666
0.034807340850652374, 0.003932933740485611
0.02989737528429211, 0.003918927262516789
0.025297141776771455, 0.003901642774231271
0.02115239476807638, 0.003884523828038652
0.017571212663962117, 0.003872329657478702
0.014617729867943652, 0.0038707170655760035
0.012309788999462582, 0.003885080910110434
0.010619144165971484, 0.003916887562435658
0.009472058146428456, 0.003956904998069776
0.00875848169552867, 0.003988245917252027
0.00834992869278771, 0.003998890424805454
0.00811793616476549, 0.00398914366925429
0.00795238043412025, 0.003969070070726868
0.007777779874292013, 0.003949883431223502
0.007559787877185573, 0.003938895849844814
0.007303160553643893, 0.00393944147558197
0.0070400199465453644, 0.003954430239689108
0.0068133496580942, 0.003986397971260863
0.006659122755018612, 0.004032324310248128
0.006584736097644321, 0.0040810606557388236
0.006556049317015099, 0.004116029273968409
0.006509762547876778, 0.004124470998906909
0.006374661071992859, 0.004104802075928052
0.006092941460222055, 0.004066141318339596
0.005641021803016269, 0.0040211375674815315
0.005037718648282762, 0.0039799824732198496
0.004331298886257404, 0.00394980219376513
0.003582623662134093, 0.0039329653299162255
0.002854881569685723, 0.003926598903480426
0.00221066652795187, 0.003925673362000174
0.0017035257607825067, 0.003927879263537436
0.001361165388234915, 0.003937011223599946
0.0011703032589154287, 0.003959334380197127
0.0010850342379137663, 0.003998201603258305
0.001054056716592249, 0.004050727500820418
0.0010353549931849196, 0.004109073519900649
0.0009993081701012232, 0.004164859506812089
0.0009300973218777444, 0.00421494923328369
0.0008238557716382954, 0.004275660526156553
0.000684913759553893, 0.004398535309993934
0.0005221677527451299, 0.004669051197809403
0.0003456495033635817, 0.005173552753158313
0.0001639186941486081, 0.005952584992263739
0.07726613501955343, 0.01213773362790755
0.07777685678911368, 0.010443473471872945
0.0778633376738303, 0.008843822361623937
0.07747936448327404, 0.007390008554127626
0.07658073397558951, 0.006142580428903617
0.0751271756062456, 0.0051648233987309985
0.07308479247357781, 0.0045005385393842605
0.07042913419445893, 0.004137104121548346
0.06714936431504058, 0.003992915435319351
0.06325453466191316, 0.003961949532328877
0.058781295515238134, 0.003965075361124988
0.05380211219630298, 0.003966854762377027
0.048434438289098096, 0.003962141365755258
0.042843639314970636, 0.0039547105310600225
0.037228100273833754, 0.003945587110939062
0.03179705713337245, 0.003932315628266542
0.026746451901076274, 0.00391475547134334
0.022234804482225007, 0.0038961649152205687
0.01836922354382632, 0.003881701229930889
0.01520558137170879, 0.003878170978961328
0.012751085259764391, 0.0038929588699016214
0.01096622840852235, 0.003929183685493958
0.009766393539192045, 0.003976051147139089
0.009031623519838711, 0.004012406503958764
0.008624911222670197, 0.004023324955485532
0.008411074462886322, 0.004009831497353531
0.008275527478992744, 0.003985074749982938
0.008140809312652963, 0.0039626128640082095
0.007972047002576735, 0.003950035583256922
0.00777330664469351, 0.003949775801594624
0.007574884578365445, 0.003964860097619703
0.007416192342222911, 0.003999391232600276
0.007327291988265318, 0.004051207500468887
0.007306791453566669, 0.004107627096053557
0.0073091775245396175, 0.004148376771001891
0.007259560716630422, 0.004157651740993628
0.007078059594355996, 0.004133799402369205
0.006704406924822827, 0.004088542280654974
0.006122065371160044, 0.004037388387399136
0.0053667299894644095, 0.003992052933212211
0.004508586191527089, 0.0039603736236855595
0.0036297174327270154, 0.003944444776455847
0.0028099275310770858, 0.003939878608665983
0.0021221482470031128, 0.003939637664216824
0.0016225707170237208, 0.0039403829261960305
0.0013321633608710443, 0.003947074000447757
0.0012203720126075927, 0.003968313040538785
0.0012178949886077807, 0.004009371833591889
0.0012525616632276585, 0.004067688282428915
0.0012681266767420151, 0.00413388416091688
0.0012276038940460525, 0.0041961745142300826
0.0011144256111390322, 0.0042462763737813195
0.000929250224099569, 0.004297447083163472
0.0006842378338488662, 0.004406768148948135
0.0003975394184185235, 0.004677128638343047
8.807589517404665e-05, 0.005215965224963669
-0.00022840406417779823, 0.006072451108063038
0.08182276261892972, 0.012896236071569547
0.08250385519480669, 0.01107297939789415
0.08273486253093423, 0.009349623245652774
0.08246283715530829, 0.007781787073959837
0.08163605511990427, 0.006435743364976544
0.08020592690442382, 0.005381700167245516
0.07812944733524294, 0.0046693074605294
0.07537231603602046, 0.004285214041209864
0.07191368044637907, 0.004138017357904619
0.06775477893928887, 0.004109797140578908
0.0629301998291623, 0.004114462886440662
0.05752024285614463, 0.00411541372826983
0.05166458407691765, 0.004109232254812121
0.04556516632475601, 0.004101151818149571
0.03945981717476498, 0.0040921797787234135
0.03358874555379051, 0.0040789135102274
0.028166283270566337, 0.004060668169363514
0.023354557862371225, 0.004040763023330359
0.01925172522739874, 0.004024716325327537
0.015900337965750397, 0.0040200857164590376
0.013295807556919587, 0.004035483472326351
0.01139016657595987, 0.004075012254436599
0.010094619170294583, 0.004126768519603421
0.009288964410276681, 0.004166741436327642
0.008838438473292092, 0.004178066803561947
0.008611064037649094, 0.004162227980480589
0.008494915428294182, 0.004134416598317679
0.008413083080938093, 0.0041097938598454835
0.008327367176625697, 0.004096227677585371
0.008233326006342533, 0.004095645843507868
0.008148519393560726, 0.004111181895899226
0.0080975220203034, 0.0041479239732258606
0.008095716808023266, 0.004204180185290232
0.008129756821058673, 0.004266156680859077
0.008146889013782105, 0.004311067037379201
0.008069928788283342, 0.004321048520599946
0.007821348328150218, 0.00429437034759636
0.007347756088173344, 0.004244456779422261
0.006644008290678405, 0.004188717242674088
0.00576077030109312, 0.004139931077373027
0.004784127770532458, 0.004106510480522294
0.0038100318278234727, 0.004090512218009684
0.0029279290298705072, 0.0040867032480472534
0.002214998753910728, 0.004086841112519335
0.0017258383062000626, 0.004086946487816669
0.0014741222798173555, 0.0040926804034657075
0.0014167309224582204, 0.004114035063293013
0.0014693185208045519, 0.0041573838585150305
0.001546728769929062, 0.0042203037601611535
0.0015839189871113232, 0.004292511140566973
0.0015394244806132833, 0.004360326088750246
0.0013963922553253667, 0.004412662041021675
0.0011585419008140856, 0.004461482703858875
0.0008431809708225533, 0.004568153883687802
0.00047449082914456723, 0.00484740774766214
7.716005541010606e-05, 0.005420746019191482
-0.00032841088436586673, 0.006343117671688805
0.08599275702187081, 0.013672908221925855
0.08682952385653187, 0.011734064253363808
0.08719285228474799, 0.00989977002664423
0.08702355613478846, 0.008229587716056797
0.0862628989279645, 0.0067947511002051444
0.084854477700613, 0.0056711653199124626
0.08274666130855908, 0.0049130580569215244
0.07989573344501966, 0.004506552503332025
0.07627127728569345, 0.0043528809989258265
0.0718675820850909, 0.004324820367052152
0.06671866710237388, 0.004330238151373826
0.06091403426656986, 0.004330788302000678
0.05461567686970766, 0.004323744203659194
0.048060254526997144, 0.004315163879614442
0.041521722568592274, 0.004306028908962406
0.0352672813641714, 0.004292340288032428
0.029525565197715358, 0.004273141314086662
0.024458602086763172, 0.0042519172489695264
0.020152709902986444, 0.004234553816925559
0.016635438502523428, 0.004229221995185986
0.0138901294563495, 0.004245426502381813
0.011861515940680767, 0.004287908600814743
0.010459227730533987, 0.0043438202030702065
0.009566553143653393, 0.004386917638769858
0.009055153920491393, 0.004398806764461946
0.00880017182088074, 0.004381263576926962
0.008695262790153169, 0.004351021677881249
0.008665329930863882, 0.0043245452885800955
0.008668134046178078, 0.004310080976506511
0.008688143063781545, 0.004309340727699541
0.008726602633569079, 0.004325605161796081
0.008789951346156512, 0.004364637411133772
0.00887704756657061, 0.004424945801310959
0.008963037974259945, 0.004491736059220653
0.008990876264983932, 0.0045402075076951594
0.008885469622924748, 0.004550871814913055
0.008575978403530825, 0.004521904899911507
0.00801866336355793, 0.004468031384906732
0.00721951754563917, 0.004408179269229645
0.006240499755501703, 0.004356063018742761
0.005177948270372974, 0.0043206536701427215
0.004135871599238847, 0.004304069387772734
0.0032087059935265072, 0.004300500010485609
0.0024750907758903087, 0.00430083903318214
0.001987595690865531, 0.004300651889872566
0.0017549084029967617, 0.004306121225504791
0.0017265892319363494, 0.004328234263752086
0.0018100510143617546, 0.004374096955982138
0.001912950359271057, 0.004441278754954891
0.001965109427079393, 0.00451876354806746
0.0019221934211589708, 0.004591577766965079
0.0017668253186593277, 0.004646956920205556
0.0015041246694161036, 0.004696601717956632
0.001154011577338197, 0.0048058233706254625
0.000743815091748677, 0.005098563831173066
0.00030126617068384787, 0.005706741618729606
-0.00015077386030390905, 0.006689568066130163
0.08895738001463525, 0.014342544514179578
0.08998568704099158, 0.01230445881940241
0.09052341763036796, 0.010373353179495882
0.09050487558242738, 0.008612550419715379
0.08986388094590828, 0.007098160312470597
0.08853561026079633, 0.005911898771230503
0.0864590095934306, 0.0051129472904433634
0.08357995344129018, 0.004687327615369582
0.07985737896979792, 0.004529117206211501
0.07527794366518885, 0.004502011664934156
0.06987515717069248, 0.004508235322406762
0.06374790574754001, 0.004508169455925864
0.05707983878981737, 0.004500147918710783
0.05014049734854356, 0.004491184483656267
0.04323807701350387, 0.00448215222549695
0.03666576833760101, 0.004468299419481975
0.030666101593206742, 0.004448321684985274
0.025400600296509302, 0.004425855370036475
0.020943055860920465, 0.004407133789428019
0.017305191728829182, 0.00440094735252739
0.014457444942277867, 0.004417795527137558
0.01233640661029821, 0.0044632163138225754
0.010849277412039062, 0.004523399458467767
0.009882078236870795, 0.004569667986852341
0.009312439525955535, 0.00458197843598582
0.009022686392492998, 0.004562493394016818
0.00891288527819017, 0.0045296834529417705
0.008911529068162609, 0.0045013887471793655
0.008974888772601, 0.004486120655788867
0.00907932763029692, 0.004485189811924437
0.009213081552702732, 0.004501975487323822
0.009368080569282032, 0.004543059293734137
0.00953035350146648, 0.0046073151518311335
0.009666290172146392, 0.004678975064043395
0.009715425687365192, 0.004731085532732092
0.00960383170542206, 0.004742401277874981
0.009265032592912623, 0.004711024997270823
0.00866159171596207, 0.004653117539693745
0.007806613742395483, 0.004589211690761798
0.0067690459515223345, 0.004533926405618223
0.0056513837981176495, 0.004496751516278525
0.004562350067519433, 0.004479835669265987
0.0035994529616806595, 0.004476726807409554
0.002843050172704439, 0.004477356393982135
0.002346136624996048, 0.0044767638913104256
0.0021162029751049566, 0.004481684569714304
0.0020996681436150264, 0.004504183742153108
0.002199521108588612, 0.004552185247207999
0.0023191599440190733, 0.004623326010824583
0.0023850966390253922, 0.004705921413034547
0.0023508538739836697, 0.004783673156050742
0.002198209344174728, 0.004841840256350574
0.0019325285241239842, 0.004891343807466946
0.001574673419800647, 0.005000979905089922
0.001153245296476974, 0.005303774580424358
0.0006972413240866784, 0.005942140029414461
0.00023053593823452558, 0.006979265421078998
0.09009796583901065, 0.014806711381567217
0.0913911952218876, 0.0126888120738697
0.09218737574844807, 0.010676977111785434
0.09241342851613593, 0.008838210656930252
0.09199444505959113, 0.007253808272521923
0.0908554253801417, 0.006012353017157171
0.0889236070047732, 0.005179670286439623
0.0861315872673983, 0.00474234246256617
0.08242433407217975, 0.004585701094849581
0.07777783870007793, 0.004562748323378348
0.07222313251928242, 0.004570219633611287
0.06586753042541951, 0.004568660292998308
0.058916095242525564, 0.004558976901060298
0.05167168336409421, 0.00454980864643778
0.04447819894875588, 0.004541680541024232
0.037657259723365887, 0.0045284810771742835
0.03146760855410577, 0.004508245094206257
0.026071134257922297, 0.004484700405285166
0.021528157100460375, 0.004464370783249098
0.017832765360147523, 0.00445672755954716
0.014940440818052094, 0.004473703338317302
0.012777281291784915, 0.004522255894443206
0.011245265911576551, 0.004587473069381756
0.010230152292191414, 0.004637339008864422
0.009612953528730999, 0.004649604712914441
0.009281683895871086, 0.004627182179680084
0.0091431492499807, 0.004591109875030185
0.009132165694611305, 0.004560975693603169
0.009208342790646534, 0.004545175834519709
0.00934605293389898, 0.00454393226259035
0.009527279832362368, 0.004560561396024876
0.009736304266914098, 0.004603038173633527
0.009952393241132368, 0.004671216043290999
0.010136569598593166, 0.004748362332139252
0.010224226843370892, 0.004804698762834408
0.010138512295076656, 0.004816612719749401
0.009811342661615315, 0.004782199772907424
0.009205178002962208, 0.004719657311693923
0.008334801701285807, 0.004651561926043017
0.007272467843906669, 0.00459340474579563
0.006124631120762089, 0.00455509433525988
0.005003599087391417, 0.004538703002134211
0.004010017305438247, 0.004536857312577532
0.003227901440140686, 0.004538105756103547
0.002714225874019337, 0.004536678817039047
0.0024789575341159567, 0.0045400391621067205
0.002467661765263223, 0.004561746020249578
0.0025797069433270846, 0.004610945066981616
0.0027145984009936744, 0.004685615122367413
0.002795903047495815, 0.004773504424278713
0.002775224208223911, 0.004856610246468377
0.0026334232892663515, 0.004916809682315395
0.0023757429060489313, 0.004962345148329318
0.0020234110443802964, 0.005064714683556089
0.0016056216844434652, 0.00536783962509369
0.001151961720574811, 0.0060278226630900884
0.0006867295180262976, 0.007112470845037974
0.08906199926711798, 0.015084728542697365
0.09075719399698544, 0.01289693441548401
0.09196407229777356, 0.01080958448711307
0.09259977468447393, 0.00889390094810403
0.09257733577102302, 0.0072377528603129885
0.09180717635120479, 0.005939522169007019
0.09019919908676333, 0.0050757900159708646
0.08766573279929533, 0.004634954305371397
0.08412971687154507, 0.004488989860308873
0.07954918667753155, 0.004475306070790398
