flux,fluxerr
0.516006799111, 0.0645940369739215
0.5079488853735092, 0.05330046449213283
0.49702358712163647, 0.04278043099445205
0.48312668024563593, 0.033311255777629036
0.4662004622533456, 0.02523733509339218
0.44624795066959444, 0.018981993033257594
0.4233498393454862, 0.014944512021662085
0.397684655060237, 0.01307087564063147
0.3695512040742608, 0.012510323576172584
0.339384760671116, 0.012274463642410095
0.307767031988098, 0.011924939291845519
0.2754393516205149, 0.01148645848780744
0.24332641600663277, 0.011116379428033583
0.2125938451237243, 0.010908023726247143
0.18463308042529106, 0.010850495161143716
0.16058412414970313, 0.01090459821456482
0.14071267909210494, 0.011044602866333847
0.12449195142352609, 0.011239751530368448
0.11106481528583972, 0.011423207553378053
0.0995271007871538, 0.01155040379618075
0.08910054737155729, 0.011647024631475227
0.07925902738795033, 0.011759129087187955
0.06974156956022663, 0.011904802807859508
0.06051145894057553, 0.012055491346374014
0.05169445267113659, 0.012171064172055294
0.043512034249439106, 0.012196328471771958
0.03621768570891734, 0.012066515052384931
0.030035482633657348, 0.011808479788672577
0.025098171428257224, 0.011575191271615833
0.021385384840073716, 0.0115174956183884
0.018696220911847916, 0.011633565733015527
0.016722352229890262, 0.01181819272746919
0.015195643590752123, 0.012078174721708697
0.013960784094421228, 0.012813146285421876
0.012942379441994492, 0.01489094048650827
0.012098538154855905, 0.019033892055002628
0.011396444086417766, 0.025278514338879364
0.010808672214794772, 0.03327485104235535
0.010312393454290287, 0.04264074215458295
0.00988869497186022, 0.053053859217528435
0.009521992501436266, 0.06424745900588699
0.009199522966799278, 0.07599633638676534
0.00891090714123941, 0.08810749692776708
0.008647773323865057, 0.10041471339472487
0.008403434116929499, 0.11277513006594903
0.00817260936311378, 0.12506683324099896
0.007951189160635076, 0.13718686426371174
0.007736031631117124, 0.14904944224853733
0.007524790781763786, 0.16058430161668005
0.00731577039027651, 0.1717351117930229
0.007107800356963735, 0.18245797284020018
0.0069001324222579255, 0.19271999064624273
0.006692352546548474, 0.2024979376642952
0.006484307598997256, 0.21177700443826114
0.006276044309058751, 0.22054964525577808
0.006067758703513335, 0.22881451917142195
0.005859754487472615, 0.23657552573311405
0.5098894515544421, 0.06241617469741918
0.5024427040387075, 0.05172000480766413
0.4923557389073452, 0.04179017645763841
0.479527659765276, 0.0328840955779677
0.46389515974067813, 0.025316401030283216
0.44544382404674376, 0.019457454841575763
0.42422156136703015, 0.015623904291657264
0.4003544968204868, 0.013731258462345877
0.3740653581179881, 0.013059934778599883
0.3456925460780965, 0.012764568477062706
0.31571023382662894, 0.012425997761391864
0.2847522147481797, 0.012021722733733125
0.2536429964317385, 0.011670480741841332
0.223447111778235, 0.011460132272149114
0.1954502960603411, 0.011395902194701458
0.1707555660848272, 0.011447695595617079
0.1497519566736216, 0.011585133550599445
0.1321427510158858, 0.011772299858828997
0.11728682726951951, 0.011950803747882729
0.10443593529309268, 0.012084097907524773
0.09290365314193932, 0.012191579898831097
0.0821947152102381, 0.01230944876506721
0.07203639541555196, 0.012451173708083695
0.06235813239750173, 0.012590602035047931
0.05324059326149699, 0.012688893056773332
0.0448557441070724, 0.01269861357773677
0.03740966316990797, 0.012574548033413827
0.03108798057522702, 0.012348278755008824
0.026001188191178415, 0.012146656202188544
0.022130383348955254, 0.012089337217847093
0.019303427144862377, 0.012178177571802198
0.017254670730529106, 0.012347244886132598
0.015743623860324355, 0.012646870026329825
0.01461504165456613, 0.01346483886616185
0.013776655180760855, 0.015548901422379843
0.013166008783029527, 0.01950816661766241
0.012732614401707037, 0.025396070475073838
0.012434587896239824, 0.0329266718662388
0.01223739092757366, 0.04176363058524108
0.01211274478755009, 0.05161335363076831
0.012037688787245654, 0.06222966951229148
0.011993765275111092, 0.07340374348465652
0.01196631547043358, 0.08495604116226385
0.011943872172058423, 0.09673130569950492
0.011917637062746721, 0.10859536703219982
0.011881031800218121, 0.12043289218744829
0.011829313387788495, 0.13214559494552394
0.01175924546876122, 0.14365067182885294
0.011668818207105813, 0.15487936001831204
0.011557010316561766, 0.16577557515914665
0.011423587594823252, 0.17629461574537486
0.011268933020892082, 0.18640193298568164
0.01109390409205028, 0.1960719693628378
0.010899713622176113, 0.2052870697686996
0.010687830703484297, 0.2140364682256223
0.010459898956158271, 0.22231535180897377
0.01021766956233962, 0.2301240019409192
0.5070131916431331, 0.060276954420518634
0.4998751986579347, 0.05012311613198118
0.49029270440177947, 0.0407309969312771
0.47817017943591866, 0.03233772300335235
0.4634425279143424, 0.02522806873173439
0.44608403604541014, 0.01972378013161328
0.4261189456368535, 0.016076131263217525
0.4036338995854842, 0.01418408680896322
0.378792968932478, 0.013430699864336757
0.35185834112328657, 0.013085202144066265
0.32321720790414027, 0.012752484927397943
0.2934126255663445, 0.012377522784256814
0.2631790219948866, 0.01204690748273747
0.23348438717948677, 0.01183973297795748
0.20550900100541628, 0.011770997068191829
0.1803023708287466, 0.011818488653756816
0.15832983753965768, 0.011950715032111687
0.1394679140293203, 0.012129561935179374
0.12325850316365217, 0.01230302964634151
0.10910573717378717, 0.012440040347047612
0.09643129085707282, 0.01255487416278171
0.08479656819491373, 0.012675557034718416
0.07394184903822319, 0.012811440854793289
0.06377878232728257, 0.012938778022094335
0.054350357624230045, 0.013022179634463076
0.045780636127161024, 0.013022169099727294
0.03822625030213678, 0.012907360290068611
0.03182941563790748, 0.012709891993856876
0.026670704234658074, 0.012534443167347318
0.02272244417186109, 0.012477037222157589
0.01982895276758192, 0.012544409580217866
0.017755702618672663, 0.012703008917249731
0.01628418239826178, 0.013034942376144911
0.015261016463937089, 0.013911258720641412
0.01458308524475718, 0.01598244238056446
0.014173927904674042, 0.0197686330092611
0.013970703470133322, 0.025331822550320387
0.01392115800974322, 0.03243726880217768
0.013982120917266846, 0.04079038457635349
0.014118197245228116, 0.05012576359477268
0.014300628497199222, 0.06021767159250098
0.014506301704552771, 0.07087331260132386
0.014716888907980126, 0.08192612346682082
0.014918101207771263, 0.09323128048601816
0.015099043365741088, 0.1046627865640009
0.015251656560151611, 0.11611143777708387
0.015370238334317084, 0.12748324245721487
0.01545103005879931, 0.13869806982207117
0.01549186336381241, 0.1496884207619512
0.015491858007646837, 0.16039827323116584
0.015451164542564661, 0.1707819840781517
0.015370745934106452, 0.18080324274883106
0.015252192993897925, 0.1904340779412838
0.01509756910990824, 0.19965392003888788
0.014909280310398197, 0.20844872208628773
0.014689967186393094, 0.2168101412538186
0.01444241562962418, 0.22473478168634511
0.5049956002559594, 0.05839532903359254
0.4982766717881351, 0.04868130699031663
0.4892693694757303, 0.039722449330531415
0.4778792964289475, 0.031739052919292306
0.464036576818236, 0.02499176545727352
0.447703040326041, 0.019765881375609123
0.4288806762674072, 0.016269035437362016
0.40762154680636764, 0.014393376022463197
0.3840403746509604, 0.013591821663353192
0.3583364865167472, 0.013212990695075394
0.3308257867918839, 0.01288371294572373
0.3019768774990343, 0.012530465776664569
0.2724501649053246, 0.012217719982124758
0.24313654477000335, 0.012016153427604908
0.21513622557452475, 0.011945322650442187
0.18945811732559034, 0.011988445923349909
0.16662040261291275, 0.01211484754348256
0.14662633845794634, 0.012286294756001234
0.12916172695863157, 0.012455140005986631
0.11376156767689394, 0.01259347485699736
0.09995075046414326, 0.012711929638746206
0.08735633718618638, 0.012832881083507592
0.07574788182994127, 0.012962898024219969
0.06503620402311841, 0.013080331715789359
0.055241478102392313, 0.013153349757822853
0.04645133492215138, 0.01314853008142342
0.03878010329880454, 0.013042694999928646
0.03232894352818713, 0.012866615303776214
0.027145666501762655, 0.012709434671921555
0.023185253559335414, 0.012652064369867676
0.020294499902177274, 0.012705478824686386
0.018254590903742863, 0.012857911948846541
0.016859262536838535, 0.013210313974488
0.015955660339863915, 0.014117512409319735
0.015433579120695137, 0.016162215890335285
0.01520754057322551, 0.019804054798538973
0.01520662460259585, 0.02510797996626689
0.015371661973263543, 0.03187376385918715
0.015653609408828255, 0.03983798337523616
0.016012129114402637, 0.04875763248701018
0.016414346012132666, 0.0584236022304025
0.01683376205036508, 0.0686561942668873
0.01724930922202076, 0.07929944675963212
0.017644524961509638, 0.09021709852886325
0.018006835407147467, 0.10128992431293043
0.018326933639070574, 0.11241388431387396
0.018598241452177023, 0.12349870982616103
0.018816444516721445, 0.13446671503223798
0.018979091933089904, 0.14525172859715846
0.019085252215549586, 0.15579809515051013
0.019135218656298282, 0.16605972575506167
0.019130257837431643, 0.17599919061107142
0.019072395784828083, 0.18558685361818258
0.018964236904330033, 0.19480005082857066
0.01880881141524722, 0.203622315292801
0.018609447506608555, 0.21204265037919623
0.018369664895120513, 0.22005485288232743
0.5011760759308453, 0.057196720472919294
0.49540001897486113, 0.047728099341887285
0.487434249124183, 0.03900511717383429
0.47717554586800115, 0.031239949081588753
0.46454029789817164, 0.02468215971025557
0.44947057907792426, 0.019601628394644723
0.4319413019793472, 0.01618949740400026
0.41196861120096046, 0.014337305785639947
0.38962116753474796, 0.013526682385282459
0.36504396984413295, 0.013139288361048886
0.3384955286763755, 0.012813570329547316
0.31038955921888073, 0.012470879618890837
0.28133902564322033, 0.012167481987670228
0.25219664725915875, 0.011970110829917623
0.22403619606245567, 0.01189931812350867
0.19786841863408505, 0.011940319151730038
0.17426057800496955, 0.01206326677738764
0.15330074032373997, 0.012230469516494674
0.134768630288296, 0.012396170632843888
0.11828755042927101, 0.012533661737726676
0.1034572810446331, 0.01265217961052388
0.08996037301827384, 0.012771960646245079
0.07760059935769362, 0.012898586897489565
0.06630248724328278, 0.013011406647388701
0.05608274267851273, 0.013080273847264375
0.04701241937301291, 0.013074203291185114
0.03918040936252757, 0.012972789022544435
0.03265852651149726, 0.012805768412945104
0.027466463127342786, 0.012656168049138748
0.023537454059130013, 0.0125992646004139
0.0207071715868151, 0.012647606734827012
0.018754848050796778, 0.012796993003676002
0.0174735646104706, 0.013153540085206776
0.016706654042829814, 0.014062718134550612
0.016338085526498555, 0.016078759199905254
0.016276462775513804, 0.019636570039020557
0.01644579363024922, 0.024801001306189126
0.01678269076008867, 0.03138518888215724
0.017234640389065574, 0.039138992409847154
0.017758486262793794, 0.047829623681922936
0.018319101566957353, 0.057255864304942325
0.018888227195319504, 0.06724437653924821
0.019443457119756025, 0.07764444968219048
0.019967353723057142, 0.08832416952889463
0.020446677841422217, 0.09916786875742215
0.020871719950653074, 0.11007435835788898
0.0212357204384754, 0.1209555839374751
0.021534368253267627, 0.13173550441051277
0.021765368423498452, 0.1423490885210042
0.021928070017127977, 0.15274137914374064
0.022023147069234545, 0.16286660378797374
0.02205232586194731, 0.17268732386968394
0.02201815270284811, 0.1821736218534765
0.021923797027869913, 0.19130232797020819
0.021772885259214975, 0.2000562888591889
0.021569361387251067, 0.208423680205045
0.021317370723934394, 0.21639736478236107
0.4946779348158261, 0.05666060294340481
0.49042993154346753, 0.047242114423825955
0.48404609345381094, 0.03855825690804837
0.4754043167438572, 0.030821974300022908
0.4643975209009369, 0.024284910504285592
0.4509390438927678, 0.01922183565110951
0.43496903374256884, 0.015831609803585868
0.4164619922370811, 0.014008868612616151
0.3954375999898503, 0.013226212904753112
0.3719875833778328, 0.012855544733204554
0.34631962816829076, 0.012535566157798418
0.31880650801514065, 0.012193593459464998
0.2900376956270066, 0.011890795467138433
0.26086679685928343, 0.011695259278399048
0.23239686412641392, 0.01162625840107841
0.20568859459492753, 0.011667845235910438
0.18136582045390215, 0.011790287051690837
0.15957205452449533, 0.011956437174101034
0.14013841363043117, 0.01212026893838725
0.12273537690175843, 0.012254849310762999
0.10700684694305665, 0.012370253151148137
0.09267643641822185, 0.012487842455046978
0.07958264379925356, 0.012613813133699615
0.06767469138927037, 0.01272727492742817
0.056982655951321626, 0.012797553256740849
0.047579193422542826, 0.012792584625240563
0.03954362181626174, 0.012690370312520792
0.032929765410028324, 0.012520693127558272
0.027734178090834713, 0.012369148402874428
0.023865068174381884, 0.012313390242745902
0.02113562189950184, 0.012364399782199362
0.019308434076760552, 0.012512225808444305
0.018164985706445456, 0.01285627754071426
0.01754060188947587, 0.01374044396628466
0.01731374156264562, 0.015726843151571017
0.0173890637577907, 0.019258466488021674
0.01768764093591484, 0.024398726091189715
0.018143952557361856, 0.03095535214247791
0.018704013318965262, 0.03867446376347524
0.01932373713563642, 0.04732143735813536
0.019967506770943368, 0.05669418586109428
0.02060692518889633, 0.06661894591816511
0.021219727337284562, 0.07694483471455678
0.021788833431752114, 0.08753996130257001
0.022301526917586047, 0.09828885632755996
0.022748742169053145, 0.1090906885827531
0.02312444866718684, 0.11985790409833703
0.02342511989733124, 0.1305150846237619
0.023649276545790937, 0.14099792218424964
0.023797094768288087, 0.15125226103572542
0.023870071365937655, 0.16123318651772192
0.023870738651396075, 0.17090415409787374
0.023802422630686267, 0.18023615814916857
0.023669038875862136, 0.18920694239297398
0.023474921130316823, 0.19780025443358074
0.023224678280710637, 0.20600514642933887
0.022923075855309994, 0.21381532322167976
0.4863488632293496, 0.056533905938675
0.48390063334009836, 0.04703318536237287
0.4793490589643703, 0.03825541813484569
0.4725478231306549, 0.03041994052174178
0.46336112534276375, 0.023789018112307547
0.4516686073000921, 0.01865630438506392
0.4373712522549967, 0.015246469999642043
0.4203984188378031, 0.01346100001374129
0.4007186743282919, 0.012735239014361029
0.3783706038661952, 0.01239980551547577
0.3535148444457258, 0.012086722093377827
0.326492295690081, 0.011738508295761136
0.29788545679496925, 0.011430863054700731
0.2685764345657246, 0.011236406878051768
0.23973707748294157, 0.011170785846864801
0.21251145155673468, 0.011214522560832014
0.1875829898548193, 0.011337935406686768
0.16512606297644675, 0.011504863189924795
0.14498847042466548, 0.011667444016423188
0.12685424653104774, 0.011797292718200323
0.11038619924840161, 0.011906878672525165
0.09533702960047379, 0.012021066631636091
0.08157975820847056, 0.012147885613945867
0.06909594355091428, 0.012265458980855962
0.05794084377057479, 0.012341272680216115
0.048201244896026736, 0.012339720252381241
0.03995743154863896, 0.012233618349392655
0.0332524229094385, 0.012053104949143231
0.02806239120626236, 0.011892677414180902
0.02426777617445652, 0.011838622883589642
0.021651612100617036, 0.011898333756120507
0.01995083957515413, 0.012046182607634156
0.018929447736275477, 0.012365297602306502
0.01841367585776726, 0.013202524695341578
0.018278462378018757, 0.015154641474487496
0.018427461884711765, 0.018697342805701223
0.018781610238855075, 0.023891018649691044
0.019275783564445127, 0.030524064251087616
0.019856791729447442, 0.038327092061636356
0.02048163185508143, 0.04705571977136673
0.02111596760599846, 0.05650135429494744
0.02173280728776842, 0.06648544860710998
0.022311356828779414, 0.07685345116297876
0.02283602644358258, 0.08747069503878584
0.02329557219720041, 0.0982197274322537
0.023682355847756596, 0.10899845389360745
0.023991708265379583, 0.11971870561358515
0.024221383433742093, 0.1303050217749722
0.02437109155998759, 0.1406935453408297
0.02444210116888751, 0.15083098651646576
0.02443690125636314, 0.1606736359282274
0.02435891564201537, 0.1701864226447459
0.024212262604624796, 0.17934201774508532
0.024001553721980796, 0.18811998599809038
0.023731726578113718, 0.1965059883158048
0.023407906657790155, 0.20449103698348112
0.02303529432923846, 0.2120708047536493
0.4773971564424799, 0.05652307950255089
0.4766651917742881, 0.04689696681627928
0.4738605061922591, 0.037981439339577226
0.4688128856110616, 0.030003595394263696
0.4613582990318246, 0.023238620309865524
0.45134341839808495, 0.018004087093822074
0.43863110644081665, 0.014559676318907297
0.423107042155279, 0.012817879869633867
0.4046906964037346, 0.012162944695630593
0.3833703048396011, 0.011869410111736093
0.35926335564014683, 0.011561885498450183
0.33268432015121263, 0.011204102042540286
0.30421638015524055, 0.010890482724969721
0.2747813005585637, 0.01069821938091137
0.24563434262925646, 0.010637026427720445
0.21801244365786304, 0.010682834872893584
0.19265198693181734, 0.010806883182882861
0.16973815517485466, 0.010974936765058573
0.14911198353278582, 0.011136457911022683
0.13045016500819376, 0.011260608451064033
0.11341965072349194, 0.011362826042894889
0.09779573900512617, 0.011472528169690575
0.08348610866745797, 0.01160016509693925
0.07050856012595753, 0.011722785037651536
0.058949142767743795, 0.011806093113697373
0.04891437589877084, 0.011810113978818058
0.040489866175109746, 0.01170006396976025
0.03371055750585635, 0.011505586572627914
0.028533161002777002, 0.011332892336174231
0.024809265140651772, 0.011280569474485521
0.022289222198187894, 0.011352239223376507
0.020682025724936045, 0.011502155261742425
0.019733849377321293, 0.011791634259168895
0.019263922880223015, 0.012570580681340843
0.019147052770172375, 0.014482853916132675
0.01928937168235334, 0.01804889941082176
0.019614661400278503, 0.023323691541207198
0.020060668104212257, 0.030069219686333526
0.020577024485034227, 0.03799617483352254
0.021123450042721557, 0.0468480557828976
0.021668191386593916, 0.05640821940653169
0.02218667300347302, 0.06649213525017911
0.02266033239801035, 0.07694060662414591
0.023075616563057295, 0.0876154126787231
0.023423119449121448, 0.0983965288426238
0.023696842507597318, 0.10918018714773692
0.023893562516105197, 0.11987735531696703
0.024012292785574724, 0.13041242335446854
0.024053825524087066, 0.14072199956079948
0.024020344616143587, 0.1507537745391069
0.023915099388432386, 0.16046543871943192
0.023742131094185975, 0.1698236509279791
0.023506044873678848, 0.17880306017462352
0.023211820854482812, 0.18738538397986187
0.022864658854194825, 0.19555854614738938
0.02246985185331277, 0.20331587587129787
0.022032684026811397, 0.21065536891278894
0.4674865435526933, 0.0564611767553318
0.46837090536494214, 0.046712916261017534
0.4672224953909656, 0.037660801243287044
0.46384851428420787, 0.02953929498080122
0.4580579596174883, 0.02263612889838371
0.44966570832459773, 0.017293898209817932
0.43849755781957295, 0.013812934832839645
0.42439640450526744, 0.01212191719411539
0.4072333398715903, 0.011546173593840124
0.3869469120284951, 0.011296386085282073
0.3636123627543159, 0.010992107735718258
0.3375192520988124, 0.010623157177482564
0.3092540208394358, 0.01030449950143027
0.27978215307854776, 0.010116442847109532
0.2504473671359289, 0.010060451702677936
0.22258074334758537, 0.01010748659852226
0.19696348014721296, 0.010231071346777018
0.1737765404574939, 0.010400044642129501
0.15283882941032995, 0.010560540291791428
0.1338075341109948, 0.010678325848034766
0.1163466469309274, 0.010772065718065498
0.1002528683618028, 0.010876233411754711
0.08547134022974119, 0.011003919659542888
0.0720603395379862, 0.011131221533742509
