flux,fluxerr
0.5141531399795187, 0.04571429033641109
0.4958569736053285, 0.03891632514157009
0.47614679472715854, 0.032951193539852236
0.45509169367113217, 0.02794379911109685
0.4327854691778391, 0.024005653527378632
0.40935008497493264, 0.02119111799549331
0.38493953159969974, 0.019439225751902097
0.35974568912774213, 0.018552666518254886
0.3340105953212819, 0.018258291832855815
0.3080418351117031, 0.018299542043618916
0.2822097380275251, 0.01849139782721579
0.2568951781533272, 0.018723774981481835
0.2324313007151442, 0.018937164584670037
0.2090819192482542, 0.01909843992733572
0.18703936413826644, 0.019187618901393717
0.1664333688733529, 0.019197515315061853
0.14734278128418118, 0.019135892880582248
0.12980677057954543, 0.01902285994808955
0.113835288359937, 0.018883424745662066
0.09941654781532155, 0.018742618645513968
0.0865208403598462, 0.018625447193387632
0.07510294450214355, 0.018555242540370526
0.06510027354267442, 0.018553172021058197
0.05642752172902887, 0.018638849011359492
0.048977386680862996, 0.018829250218759242
0.04262744131240284, 0.019132272063704384
0.03724809319799258, 0.019533352139433375
0.032712660156221575, 0.01998745125225027
0.02890697778478325, 0.02042473094031798
0.02573182345211242, 0.02077506887906469
0.0231013584928425, 0.021004321863666135
0.020941426873292066, 0.021152294702318226
0.01918796004123123, 0.021366290752449144
0.017785473513301158, 0.021915422874989734
0.0166856413521115, 0.023154332289655532
0.015845948303384923, 0.025414706419433355
0.01522862368886216, 0.028882385782351663
0.014800068784065758, 0.033566150351325395
0.014530458055615968, 0.03935729588793017
0.014393377889568149, 0.046103543369374056
0.014365496682494028, 0.05365284561381304
0.014426263746512404, 0.06186923627730306
0.014557634677007733, 0.07063500201134335
0.014743821014485509, 0.07984840611749044
0.01497106220121821, 0.08942075549003382
0.015227417989666737, 0.09927393300959068
0.015502579604141517, 0.1093385509115659
0.015787698091058306, 0.11955261393769666
0.01607522841658343, 0.1298605474449013
0.01635878798464442, 0.14021247310833387
0.016633028353939136, 0.1505636491627171
0.016893519029813325, 0.16087401961438313
0.01713664229720602, 0.1711078362170635
0.017359498143656366, 0.1812333299341711
0.017559818398402677, 0.19122241703609824
0.017735889284172617, 0.20105043040696358
0.01788648164379885, 0.21069587010669816
0.521162295581207, 0.04658353665872529
0.5044084656693116, 0.03972596340025564
0.4861653972355594, 0.0337021188901857
0.4664808278459816, 0.028639788471275764
0.4454250229195877, 0.024652964995343456
0.42309409033434664, 0.02179785693058265
0.3996137092017881, 0.020014882343422732
0.3751455216570586, 0.01910768183822159
0.3499024249890436, 0.018802888721155507
0.32416848109756513, 0.018842033372409524
0.2983002150031669, 0.0190371493773887
0.27267660696730134, 0.01927524656908535
0.2476420297298018, 0.019494575612165346
0.2234852860209742, 0.019660571157537755
0.2004366568911425, 0.01975251052402143
0.17867337057892752, 0.01976303011285024
0.15832712805833757, 0.01970014432899616
0.1394911467881394, 0.019584498787435504
0.12222652830735868, 0.019441781540187
0.10656628595953131, 0.019297746641678225
0.09251651413762528, 0.01917810719712093
0.08005649674890021, 0.01910679533426683
0.06913669263024705, 0.019105375287405833
0.059675529988908634, 0.01919358082466242
0.05156248087085952, 0.01938821081202211
0.04466714003405714, 0.019696738719224057
0.03884924917064773, 0.02010404288152125
0.03397047193455977, 0.020564582592081597
0.029905243650943568, 0.02100831054551438
0.026543638612111307, 0.021365452945421765
0.02378983132876221, 0.021602990553717796
0.021560394870274512, 0.021762612135412213
0.01978271381147173, 0.021993743669929806
0.018393497404576263, 0.022566711252075405
0.017337379268126604, 0.023835447008393816
0.016565601366443503, 0.02612970266166982
0.016034950018709797, 0.029634164817301658
0.015707118227170906, 0.03435764865524179
0.015548227271669155, 0.04019123170318904
0.015528392975674824, 0.04698128884604969
0.015621330392689252, 0.054573564029562316
0.01580399373106156, 0.06282959897996515
0.01605624858638807, 0.07162930900343388
0.01636057378277229, 0.08086889368310679
0.016701790338375207, 0.09045795933051459
0.017066815268896487, 0.10031704540141222
0.017444438125132272, 0.11037574821867296
0.017825118329570643, 0.12057134794651789
0.018200801532787317, 0.13084780086597786
0.018564753353968885, 0.14115498194755563
0.018911409002444445, 0.1514480952008384
0.019236237399529583, 0.16168719610857238
0.01953561853259266, 0.17183678962330884
0.019806732877253565, 0.1818654801195938
0.02004746181939332, 0.19174565816080164
0.0202562980970891, 0.20145321441514685
0.02043226536369708, 0.21096727457054468
0.5230801649539247, 0.04809309462719505
0.5085423116882464, 0.04105312212475559
0.49239288708329815, 0.03485569201129861
0.47465204149666246, 0.029637747648528626
0.45536072172767195, 0.025522347915710675
0.4345840572203545, 0.022572520790847924
0.4124152139274151, 0.020730150092348666
0.3889829390033966, 0.019793560416577375
0.364471754465209, 0.019480119748951502
0.3391487812379274, 0.019522428122119028
0.3133695940147447, 0.019726360015899586
0.287526662890982, 0.01997553977088625
0.2619891510867732, 0.020206209144106774
0.23708085529945683, 0.020382010883732458
0.21307619403131647, 0.020480366503864308
0.1902029787028667, 0.020492726675201238
0.16864672857619775, 0.02042724420611308
0.14855448356195902, 0.02030587724948205
0.13003794353786505, 0.020155954550927953
0.11317463145158228, 0.020004611622555468
0.0980066567554905, 0.019878687575232253
0.0845386335499511, 0.01980290125790369
0.07273526732158947, 0.019799445837515323
0.06251973250890465, 0.01988898299458775
0.05377874035337602, 0.020089868903484843
0.04637370014595022, 0.020411361374811046
0.04015276132941591, 0.020838845199656016
0.03496458007272856, 0.021324694912167173
0.03067086072033319, 0.0217940582887265
0.02714982486711078, 0.02217130237131731
0.02429468305133627, 0.02241912319405496
0.022011921231479905, 0.022578966644101865
0.020219718040393825, 0.02280597210454044
0.0188464779762838, 0.023382791924934088
0.017829466536071138, 0.0246798951903289
0.01711354166868632, 0.02704095346742822
0.016650095027902927, 0.030654815120550745
0.016396321505159774, 0.035524298283589
0.01631462761037937, 0.04152917004193131
0.016372096131897294, 0.04850373184640326
0.016540000436119747, 0.05628301419508911
0.016793364107535506, 0.06471967823507999
0.017110561984394257, 0.07368644765150957
0.0174729589718495, 0.08307375392826566
0.017864583314776767, 0.09278662198163093
0.01827183128897353, 0.10274201135437315
0.018683200523642064, 0.11286679677655408
0.019089049402002567, 0.1230962812179469
0.019481380201769222, 0.13337309383755697
0.01985364383503936, 0.1436463515751756
0.020200564228529637, 0.1538709980383145
0.020517980552304433, 0.16400726170001076
0.02080270565809749, 0.1740201955147089
0.021052399229349386, 0.18387927351153005
0.021265454274201474, 0.1935580286970359
0.021440895711282604, 0.20303372224615313
0.021578289907023176, 0.21228703756782413
0.5190166661878477, 0.050098228382111865
0.5073624559997133, 0.042786728673538985
0.4939581312194453, 0.03633005694699428
0.47878786552907704, 0.030879836701104633
0.461854404966548, 0.02657408801482893
0.44318261224688454, 0.02348729537847279
0.42282356941887855, 0.021563385511237182
0.4008638839553923, 0.020590604490350196
0.3774531234526871, 0.020269941113488465
0.35284069695637105, 0.020319579062384727
0.32738747367446785, 0.020536828621801066
0.3015096087087773, 0.02080169384610266
0.2756113849132367, 0.021048607826972175
0.2500605121661364, 0.02123896424486668
0.2251826914271037, 0.02134713928860157
0.20126193679908774, 0.021362379455363224
0.17854208927006598, 0.02129290956494618
0.15722778127390974, 0.021162843733750023
0.13748468151724746, 0.021002162101207533
0.11943795749414936, 0.020840042101027793
0.103168582773087, 0.020704800471462285
0.08870892767666888, 0.020621973042911506
0.07603976289151983, 0.020614362453854562
0.065090017723012, 0.02070405930379073
0.05574378181757083, 0.020912448794580412
0.04785361852180035, 0.021252685907214137
0.041254729442100214, 0.0217118914193643
0.035781072254280046, 0.022239202706976793
0.03128005135659571, 0.022750997290282106
0.02761673813965308, 0.02316027872211702
0.02467232997919464, 0.02342062635264731
0.022342399475598847, 0.02357126858589268
0.020535299599241694, 0.023775982991468297
0.019170709064536606, 0.02433901913878451
0.018178303409621337, 0.025661699017186825
0.017496541510338002, 0.02811442783654231
0.017071607804677993, 0.031893780940770396
0.01685655330833563, 0.036990599616349235
0.016810550325076522, 0.043263442001991254
0.016898221064688225, 0.05052529113021849
0.01708903263771432, 0.05859331598881524
0.01735675230214418, 0.06730607070191516
0.017678957375320777, 0.07652528261350058
0.018036594716836538, 0.08613283257288173
0.0184135851388292, 0.09602714410438179
0.018796468512386175, 0.10612017521566028
0.019174085716004367, 0.11633514665622845
0.01953729391676555, 0.12660486219069444
0.01987871199018814, 0.13687045027375708
0.020192493172806726, 0.14708039273921758
0.020474122304800522, 0.15718974686023263
0.020720235260353572, 0.1671594987629379
0.02092845838299816, 0.17695600804503014
0.021097265943594415, 0.18655051785541094
0.02122585382149399, 0.19591871396461827
0.021314027776221593, 0.20504032225862737
0.021362104829179527, 0.21389873782176946
0.5087745702570299, 0.052306941375654364
0.5004266764746859, 0.04468474576754354
0.49021238042067483, 0.03792804339327655
0.4780726483889069, 0.03220706190602565
0.46396355116761706, 0.02767919976170087
0.44785990300617096, 0.024434127711106618
0.4297595715897893, 0.022418686375374027
0.4096950227956396, 0.021408025076050288
0.3877703824721143, 0.021082203514824763
0.3642116761736359, 0.021141845792848966
0.33938570096261167, 0.0213748152879681
0.31373677914009424, 0.021657994427310607
0.28770943938158255, 0.021924458304303167
0.2617197515526471, 0.022132935631376072
0.2361481248209095, 0.022253562810442953
0.21133734538338309, 0.02227237606033524
0.18759159780700949, 0.02219763597919098
0.16517488031153324, 0.02205647323106797
0.14430861948143064, 0.021882501166918387
0.1251675564284439, 0.021707502440206652
0.10787353855902067, 0.021561437136358656
0.09248864384569731, 0.02147038977685622
0.07901145785672457, 0.021457333833536665
0.06737808244614865, 0.021545808483823505
0.057470991485920456, 0.021761308213505227
0.049134453825962446, 0.022122894741425713
0.0421907864880204, 0.022620976432287592
0.03645900234203, 0.02320103597856129
0.031771931901380716, 0.02376772107607147
0.027981295241193048, 0.024218205713582828
0.024956146538768754, 0.02449284934157102
0.022581083933084303, 0.024626658336457167
0.02075464711601226, 0.024793704064924045
0.01938788643396947, 0.02532633444179711
0.018403088895998867, 0.026667161346492343
0.0177326453516074, 0.029222384209755956
0.017318003070197804, 0.03319773060224299
0.017108647533701747, 0.03856623229438817
0.017061166026933333, 0.045157194675953034
0.01713840937609399, 0.052755513739251636
0.017308742773131106, 0.061155740545068143
0.017545376855877533, 0.0701791810845666
0.017825771046815958, 0.07967454851010856
0.018131101910382832, 0.08951393865089365
0.018445789977029142, 0.0995885135756219
0.01875707910742107, 0.10980501192135882
0.019054663038099395, 0.12008313394680098
0.019330354265683837, 0.13035360021503478
0.019577790894743596, 0.14055668088765624
0.019792177499295478, 0.15064104362553227
0.01997005643328296, 0.16056281701121455
0.020109106374742145, 0.17028480237607305
0.020207965205228214, 0.17977579104676938
0.02026607461309343, 0.1890099595901015
0.020283544069183642, 0.1979663254918807
0.020261032059071267, 0.20662825189242215
0.020199642668906934, 0.21498299386622693
0.4912772798908467, 0.05448058930852186
0.48658754367122387, 0.04655367521329771
0.4799669998582736, 0.03949584659509282
0.4713064685613763, 0.033498733881187265
0.46050630062299147, 0.028742552640919735
0.4474798621463639, 0.025335413435605636
0.4321578039187476, 0.02322843505550521
0.41450222261042363, 0.022182268544373725
0.3945561100246724, 0.02185373484759643
0.3725108680871509, 0.021924767851720366
0.3487344182180107, 0.022174194926831318
0.3236988360401162, 0.02247689228084114
0.2978899664001364, 0.022765204493889378
0.27177345437400036, 0.022994727449530884
0.24578532243748552, 0.023130036386582602
0.22032781391837242, 0.023152878957787587
0.19576618494993792, 0.023071551482728374
0.172424843586862, 0.022917160323823325
0.15058258746206427, 0.0227279958205175
0.13046603136675541, 0.022538981553154404
0.1122408155706902, 0.02238176804597507
0.09600211000152876, 0.022282474218383856
0.08176997033926765, 0.022263414666427808
0.06949136799243813, 0.022349137242264696
0.05905066928197376, 0.022569989021138978
0.050286929420648774, 0.0229529437521052
0.043011988163993785, 0.023493631467297015
0.037031615377123205, 0.024134116053273764
0.03216518294468354, 0.02476510133286893
0.02825169866780732, 0.0252641653673586
0.025148335918885007, 0.025554818870312492
0.02272870082397076, 0.025665766148931856
0.02088131884963947, 0.02578199768474221
0.019508326518072747, 0.026268232065285578
0.018524356193423547, 0.02761565531547359
0.017855592468792196, 0.03027212069893033
0.01743880032878146, 0.03445181468470085
0.017220119199975042, 0.040103854624734134
0.017153886113515395, 0.04702152904885475
0.0172015900954078, 0.05495678475123774
0.017330946493924207, 0.06367868368125842
0.017515078422566305, 0.07298980204894945
0.017731793800736542, 0.08272525955071816
0.01796294765030214, 0.09274739886836227
0.018193880366690576, 0.10294059267535786
0.018412923639088478, 0.1132071618674
0.018610966555746594, 0.12346433638825685
0.01878107520631709, 0.13364198716233439
0.01891815979178772, 0.14368088788629307
0.019018683881518752, 0.15353133459919724
0.019080411022634435, 0.16315200939688132
0.01910218441587834, 0.17250901547346537
0.01908373582947126, 0.1815750372322272
0.019025520333506026, 0.1903285959699641
0.01892857380655524, 0.1987533820752939
0.018794390497538258, 0.20683765114221733
0.018624818223191064, 0.214573675392235
0.46663060898993886, 0.056152811531872814
0.46557855120631514, 0.04800412439539584
0.4626125132359204, 0.04071534571299925
0.4575723509486001, 0.03449887448749131
0.45029963182155214, 0.029557707037154688
0.4406405243867148, 0.02601913855805504
0.42844954295272997, 0.02383999286348545
0.41360625178785626, 0.022768330239664358
0.39607873547053135, 0.022440245597575095
0.37601086438550124, 0.02252179662391588
0.3537610747754311, 0.022785275265013477
0.32982040919428046, 0.023105345266496123
0.304708068804748, 0.023414453569815256
0.2789314037160217, 0.023664944705506494
0.25297394689362696, 0.023815108582096803
0.22728936169600247, 0.023841805887233933
0.20229652590824815, 0.023753390902783
0.1783739601613491, 0.023585476593505374
0.15585326713280276, 0.023381519428849414
0.13501052780180883, 0.023179695506161592
0.11605513896142215, 0.023013117163487206
0.09911781295354813, 0.02290729067333909
0.08424474652128983, 0.022882889555712663
0.07139999329421619, 0.022964587915670673
0.06047686336896479, 0.023187455523077924
0.0513164068125441, 0.023587352227284482
0.043726659632720655, 0.024166651455177574
0.037505732046373065, 0.024865106128422167
0.03246367942708613, 0.025559521293207103
0.028429553515878007, 0.02610706493648217
0.025250281791624928, 0.026413249434004735
0.02278924702888524, 0.026499174084298555
0.020925099765014724, 0.02655925903055801
0.019550798114850203, 0.026989050414590533
0.01857287212906864, 0.028326867079780087
0.017910887433949925, 0.03106009209921491
0.017496691200482032, 0.03540781523524974
0.01727300751055366, 0.04129193598574156
0.01719197125094747, 0.04846848909241211
0.01721383548255863, 0.05665714433314182
0.01730583824568229, 0.06560312814305595
0.017441210490105954, 0.07509230454120461
0.017598308817973154, 0.08494832548994188
0.01775985851638711, 0.09502592583804366
0.017912293957079443, 0.10520481751515649
0.018045184871307567, 0.11538499034198005
0.018150738287103712, 0.12548322408267232
0.018223367058446592, 0.13543046933757458
0.01825931693621848, 0.14516981927864583
0.018256345041367226, 0.15465488139085343
0.01821344341302627, 0.16384842579683634
0.018130602028751837, 0.17272123192179553
0.01800860633942924, 0.18125108390651062
0.01784886493645987, 0.18942188292898446
0.0176532634805687, 0.19722285549671215
0.017424041476967172, 0.2046478434535466
0.017163688886385923, 0.21169466555075073
0.4372771477299842, 0.05699326450638909
0.4394280972208835, 0.04875483214500261
0.4397625672817306, 0.04135375021569155
0.4380764486832009, 0.0350190570382782
0.43415819695739016, 0.029972703972482643
0.42779065505945213, 0.0263588374945114
0.418753719184947, 0.02414080410732858
0.4068429898756352, 0.023058648172546926
0.3919467760008788, 0.022734292833104672
0.3741527139700607, 0.022823755453738638
0.3537973143121973, 0.023096528722544522
0.3313758632758162, 0.023428925748487445
0.3074254790131473, 0.02375431701817664
0.28247936174844634, 0.024022223807644048
0.25705233353298174, 0.02418497426129422
0.23163341927776132, 0.024214757813967435
0.20667995237995582, 0.024119998444835776
0.18261109320839197, 0.02394058389352767
0.15980032056609558, 0.023724733153598698
0.1385654952672749, 0.023513413884145486
0.11915580697930148, 0.023340736616610427
0.10173766925340269, 0.02323109314977292
0.08638739485572561, 0.0232028487163673
0.07309283821730282, 0.023279902316024836
0.061764666942504085, 0.023501084914481905
0.05225510344175684, 0.02391057805741345
0.044377387914238946, 0.024517861893449917
0.03792986762889533, 0.02526187700273581
0.032719310320050966, 0.026007930301036625
0.02856895295655548, 0.02659543830757266
0.025318094844720515, 0.026913854541937014
0.02282133465626054, 0.026976687410621026
0.020948017641178217, 0.026984623737365123
0.01958190672991382, 0.027356948006054194
0.018621094125008203, 0.028669036381495126
0.01797812920160841, 0.031438208711523925
0.0175796540044198, 0.035883594494191026
0.01736480647982672, 0.0419011421406776
0.017283429006156138, 0.04921484233579596
0.01729450000868135, 0.05751832567866892
0.017364771552880465, 0.06653871558768691
0.01746758775274417, 0.07605003711065735
0.017581861751369398, 0.08586857463346156
0.017691191625260536, 0.09584493333099654
0.017783097867084933, 0.10585713593898967
0.01784836714571255, 0.11580538063433363
0.01788048885553564, 0.12560815156073568
0.017875172574505993, 0.13519928078271642
0.017829935974700357, 0.14452565462205025
0.0177437539906327, 0.15354535910315106
0.01761676116699028, 0.162226133509951
0.017450000095046693, 0.17054404938885098
0.01724520972001324, 0.17848236241081142
0.017004648072870613, 0.1860305029008622
0.016730944661058005, 0.19318318204104548
0.016426978353107406, 0.19993959758708454
0.01609577712180368, 0.20630272714450104
0.40262897399307246, 0.056917258919110494
0.40760627766470187, 0.04873246859233051
0.4109399227027073, 0.04134868731359704
0.41239012388276, 0.035006821220720005
0.4116994477261213, 0.02994321523921928
0.40859306794641587, 0.026315919448609875
0.40277974655210064, 0.02409553251662037
0.3939716525427379, 0.023019278562507014
0.38197380339292647, 0.022702320807908724
0.36680887391111533, 0.02279704502582049
0.34877737060623404, 0.02307406635790219
0.3283615094478214, 0.02341318512205411
0.3060981526123745, 0.02374953935428537
0.2825280184635538, 0.02403045729798388
0.2581789514627626, 0.02420296147311407
0.2335577068490771, 0.02423502152449098
0.20914382272255805, 0.024135112730100616
0.1853830702049646, 0.023946905496360003
0.1626799149686357, 0.02372268533152946
0.14138696450695318, 0.02350556924118602
0.12179045175250139, 0.0233301482116413
0.10409437852173802, 0.023219297725319776
0.08841120144388226, 0.023188609510265017
0.0747613368266539, 0.023260447020426633
0.06308306040376425, 0.023476328324098173
0.05325052492592977, 0.023887788517133208
