flux,fluxerr
0.39402734608296075, 0.13653295608305846
0.3875248996420189, 0.13334490530511134
0.379794347275204, 0.1306386250921236
0.3708520014573663, 0.12841799995558856
0.36073521948159676, 0.12666967051970857
0.34950042848446033, 0.12536434311563666
0.3372200701038969, 0.12445965094940656
0.323980245516744, 0.12390392052817421
0.3098787720269949, 0.12363964840151123
0.2950228804897721, 0.123606636643601
0.2795262575788424, 0.1237449045391801
0.26350611503696575, 0.12399744530011908
0.24708077219191443, 0.12431319998890332
0.2303676902248419, 0.12464959838557758
0.21348161271681823, 0.12497408097434184
0.19653273113019257, 0.12526456089942684
0.1796248305882946, 0.1255089214385449
0.16285341616346502, 0.1257037266901699
0.14630460222192782, 0.12585272571302814
0.13005569830376312, 0.1259657372581265
0.11417625230733183, 0.12605729645532027
0.09872897742792511, 0.1261447034180998
0.08377055229191747, 0.12624546528533537
0.06935229949018475, 0.1263742566734782
0.05552078757980438, 0.1265398175130273
0.042318526431000696, 0.126742789768235
0.029784684092382583, 0.12697474268697087
0.017955618970751184, 0.12721864275046207
0.0068652467152038234, 0.12745039293232632
-0.00345477114891362, 0.12764121281960164
-0.012975115390376402, 0.12776126919589034
-0.02166907257027141, 0.12778367747374506
-0.029512920553551963, 0.12768821682451129
-0.036486444414823, 0.12746452088641363
-0.04257359517377133, 0.12711459300883662
-0.047763305716600576, 0.12665454162259937
-0.05205048035657657, 0.12611544774539563
-0.05543717678035832, 0.125543269901297
-0.05793400164036615, 0.12499767679551824
-0.05956174381218519, 0.12454969619323741
-0.0603533057165808, 0.12427811523173327
-0.06035684508135185, 0.124264926158232
-0.05964129215324707, 0.12459037028163751
-0.05829676078031372, 0.1253275974056334
-0.056424352915588144, 0.12653771031888278
-0.054126304895148934, 0.12826551347119597
-0.051498855681158195, 0.1305362600809125
-0.048627619245853425, 0.1333540856993296
-0.045586018539121004, 0.13670267045477563
-0.0424363829914406, 0.14054815793661066
-0.03923129290712986, 0.14484314723415087
-0.03601478003325953, 0.14953099265273892
-0.03282339712242522, 0.1545498729488585
-0.029687169757018565, 0.15983627839962355
-0.026630442425879957, 0.16532775450693296
-0.02367262968590367, 0.1709648903173538
-0.02082888219046018, 0.17669263218044387
0.4023763839877574, 0.1350885254793742
0.39627420729744506, 0.13180973871449614
0.38891946392579474, 0.12903301877776982
0.3803219141643504, 0.1267621843906655
0.37051173022248407, 0.12498266545953546
0.35953771386887867, 0.1236629734126156
0.3474645901574318, 0.1227578561865631
0.3343711782673445, 0.12221240851546315
0.32034903433585776, 0.12196582609501551
0.3055007101494125, 0.12195473895581861
0.28993728706269745, 0.12211625922502384
0.27377570238889254, 0.1223908389938548
0.2571361707540036, 0.12272536319996936
0.24013986332918047, 0.12307579285000621
0.22290671199394788, 0.12340873188570865
0.20555327328541975, 0.12370187461708007
0.18819060127368753, 0.12394343750035912
0.17092212409649435, 0.12413076736972462
0.15384230878675187, 0.12426875363250359
0.13703705172975914, 0.12436867449039231
0.12058453966952047, 0.12444679324612451
0.10455599825506473, 0.1245223008984476
0.08901631339552747, 0.1246145859236726
0.07402452673948555, 0.12473996215246956
0.059634258480706664, 0.12490830970920791
0.045894273016184796, 0.12512071680231632
0.032849133316977114, 0.12536839869350613
0.020539813694171297, 0.12563317562459392
0.009004228613856127, 0.12588910654167734
-0.0017224502039034693, 0.12610503257820457
-0.011607830932367554, 0.12624847459035957
-0.02062255080850291, 0.12628993145929798
-0.02874066093320432, 0.12620686596586042
-0.03594015469218384, 0.1259871229576761
-0.042203652888134574, 0.12563162293850177
-0.047519260793461485, 0.12515622676291782
-0.051881614640011876, 0.12459268467796707
-0.055293137581060255, 0.12398857336645543
-0.05776552791722669, 0.12340610446755822
-0.059321505399447305, 0.12291968094351609
-0.05999687987323042, 0.12261212337209632
-0.0598439042423586, 0.12256987129157935
-0.05893713305254333, 0.12287773701706191
-0.05737378720498812, 0.1236132093085638
-0.05526273486475025, 0.12484112340319449
-0.05271383168547694, 0.12660904761270939
-0.0498302259313852, 0.12894372899432374
-0.04670341476281111, 0.13184937092303967
-0.04341160380275529, 0.13530835217969586
-0.040020929735010584, 0.13928441852349752
-0.036586942797175254, 0.1437270430538187
-0.033155928964296935, 0.14857609797707969
-0.029766086314927206, 0.15376623936591416
-0.026448570478147776, 0.15923062433919
-0.023228422615321022, 0.16490379730114094
-0.0201253920803941, 0.1707237472654559
-0.01715466471530981, 0.1766332371997528
0.4086434963151307, 0.13390047334125388
0.4029960909330151, 0.13054146529463545
0.39607313747730677, 0.12770252004820948
0.3878776337609781, 0.12538760967588644
0.37843240959065316, 0.12358120436302551
0.36777851684649226, 0.12224989495569434
0.3559728523455913, 0.12134583429734051
0.34308685530493793, 0.12081118223179844
0.3292057462786499, 0.12058212155529786
0.314427361598772, 0.1205923704573697
0.29886019624713045, 0.12077634949280228
0.2826209943426392, 0.12107213019984774
0.26583199249846384, 0.12142464788789044
0.24861821563370404, 0.12178845517092701
0.23110491765431612, 0.12212934294849731
0.21341511848444078, 0.12242478163514388
0.19566717936370154, 0.12266329388747467
0.17797240517805074, 0.12284296576027835
0.16043346863481006, 0.12296977477545529
0.14314460732133882, 0.1230564111829005
0.12619230896858946, 0.12312083684076157
0.10965588604675354, 0.12318412950660138
0.09360792053293614, 0.12326758089930158
0.07811457621413742, 0.12338918490574527
0.06323584362305895, 0.12356000914117472
0.04902599441353947, 0.12378163045629173
0.03553420710821528, 0.1240449394043049
0.022805307720377557, 0.12433062315674874
0.010880515002384189, 0.12461089402005031
-0.00020207322049845659, 0.12485219898742585
-0.010407459620958012, 0.12501939271868037
-0.019703987836757465, 0.1250803416178364
-0.028063731842262168, 0.12501018568884523
-0.035463041529827065, 0.12479498492403901
-0.04188325842824181, 0.1244345877544368
-0.04731161781642255, 0.12394461808935915
-0.05174235602639715, 0.12335749635247899
-0.05517804449652842, 0.1227223974874329
-0.05763117516226878, 0.12210402347837516
-0.059126025088759415, 0.12158005569305003
-0.05970086903808889, 0.12123719730500357
-0.05941155799314303, 0.1211661254307733
-0.0583377506572995, 0.12145595849296976
-0.05658324814386216, 0.12218821369760709
-0.05426413049309109, 0.12343111864613908
-0.051497278189504406, 0.1252346553290378
-0.04839213312314294, 0.12762672457761876
-0.04504548856812687, 0.13061128905585342
-0.04153980347764672, 0.13416917193080352
-0.037944551447464545, 0.13826154277433186
-0.034317838298557925, 0.14283465874409937
-0.03070784263545132, 0.147824909159935
-0.027154095645572696, 0.1531635064750914
-0.023688616736938464, 0.15878041805112875
-0.02033691998640199, 0.16460737737524814
-0.0171189048986648, 0.17057999393903317
-0.014049643643380886, 0.17663908454331903
0.4128393629984371, 0.1329155214144197
0.40769693847415306, 0.12949287772310267
0.40126174666555253, 0.1266047079903824
0.39352984900451177, 0.12425527139697755
0.3845164704771306, 0.12242835105908534
0.3742545272897105, 0.12108900831503093
0.3627925616529103, 0.12018727712481672
0.3501939950611663, 0.11966290369370107
0.3365370062397753, 0.11944958551862236
0.32191399148045063, 0.11947862923714933
0.3064301744764625, 0.11968221022566998
0.2902015043966562, 0.1199963932396143
0.2733517268263958, 0.1203644525798458
0.25600928084752855, 0.12073973017728168
0.2383043619377957, 0.12108731175310428
0.22036612064188826, 0.12138446833888374
0.20231993115664149, 0.12161998056212327
0.1842847119371712, 0.12179256641060415
0.16637109935122626, 0.12190913994599376
0.14868143459059366, 0.12198362152401418
0.1313102542908275, 0.12203547426196476
0.11434467207399683, 0.12208746702923759
0.09786462699504608, 0.12216261929192102
0.08194299184686123, 0.12228046858321491
0.06664562280556012, 0.12245318997237879
0.052031708244637494, 0.12268283683375875
0.0381543909521075, 0.12296003541993995
0.02506167359445989, 0.1232644694062648
0.012797423539738288, 0.1235666933974225
0.0014020627405075582, 0.12383099347430557
-0.009087341921219, 0.1240198142235929
-0.018637305593465277, 0.12409864452022147
-0.027218313851376838, 0.12404053135183583
-0.034805378769632515, 0.12382993167076595
-0.04137877734923516, 0.12346573503982974
-0.04692498951758961, 0.12296335505704899
-0.05143785568191377, 0.12235580772341165
-0.054919976827348754, 0.1216936798810548
-0.0573843834443416, 0.121043860652436
-0.05885650317907972, 0.12048689200853135
-0.05937650028217684, 0.12011283912740262
-0.05900306234989166, 0.1200160159229988
-0.05781999151055479, 0.12028919916486033
-0.055936528281888616, 0.12101728352373907
-0.053474718180506677, 0.1222712844082473
-0.0505571923390126, 0.12410308946522587
-0.047298465649096726, 0.12654138567815756
-0.043799545812146484, 0.12958969730235265
-0.040146239373449716, 0.1332272728461535
-0.036410613104231264, 0.13741285139273351
-0.032652727166101056, 0.1420897545676886
-0.028922176438993304, 0.14719126532136717
-0.025259457919638677, 0.15264558541608508
-0.02169718233241521, 0.158379946832504
-0.018261146300768662, 0.16432372092973457
-0.014971279804273497, 0.17041056248260308
-0.011842482178128007, 0.17657973221606654
0.41473019749812745, 0.1321010469851154
0.41010974936583233, 0.1286393870698298
0.4041890696353225, 0.12572132073003361
0.39695762676453095, 0.1233514433861611
0.38842325253877247, 0.12151317565083164
0.3786107459155187, 0.12017061051893353
0.36756007522203815, 0.11927239104248204
0.3553261929539093, 0.118756662570702
0.34197957025195946, 0.11855546669495264
0.327606311555763, 0.11859849407251957
0.31230737702928874, 0.11881640113087615
0.29619683731804014, 0.11914387691495422
0.27939881039656467, 0.11952304338468599
0.2620439876256943, 0.11990639617027439
0.24426634562968824, 0.12025852736315151
0.226200033999239, 0.12055657201044928
0.20797636566879185, 0.12078949987931702
0.1897208851006221, 0.12095648390992271
0.17155130695202764, 0.12106511198882239
0.15357727727266982, 0.12113019790448853
0.1359006450816466, 0.12117231003607994
0.11861562773510628, 0.12121547941127443
0.10180884103888208, 0.12128403132903555
0.08555918223961544, 0.12139868415484963
0.0699376672692596, 0.1215724730229578
0.05500767660745744, 0.12180783811599197
0.040825590132805345, 0.12209523182617174
0.027441870835341126, 0.12241360223727848
0.014902340400785946, 0.12273226970392734
0.0032490834813503704, 0.12301390112830321
-0.007479382598319821, 0.12321913134720411
-0.017248311216841727, 0.12331166422026633
-0.02602710190653339, 0.12326297726256835
-0.033789852731334315, 0.12305632683344234
-0.04051610471471253, 0.12268988331334262
-0.046191796156949995, 0.12217889586970775
-0.050810447631700395, 0.12155680762527553
-0.054374601667329873, 0.12087522501954621
-0.05689754463352052, 0.12020261137840342
-0.05840534220519796, 0.11962155460044166
-0.05893926504217406, 0.11922450341667948
-0.05855973035651629, 0.1191083217623505
-0.0573531806866166, 0.11936831796623339
-0.055432416559324904, 0.12009168270302706
-0.05292338750644078, 0.12135127468888479
-0.04995242238436839, 0.1232001694229199
-0.046637215701732904, 0.1256674244322077
-0.04308136840793482, 0.12875605335219664
-0.03937272294228157, 0.13244399233565846
-0.03558490417381536, 0.13668808680191236
-0.03177912946044996, 0.14142944958212328
-0.02800581655527449, 0.14659908599027477
-0.024306008477107524, 0.15212304136607066
-0.02071263459807295, 0.15792663477494084
-0.0172516252817649, 0.16393762916940405
-0.013942895670367538, 0.17008839022550523
-0.010801212650744407, 0.17631719381951594
0.414034586859669, 0.13143660047307149
0.40993093048994456, 0.12797038060913354
0.4045339471958625, 0.12504950806653342
0.3978273437495241, 0.12267886915650256
0.38981219698422775, 0.1208419157489571
0.3805055414554339, 0.11950254318735591
0.369938763894646, 0.11860903614503415
0.3581579608648559, 0.11809910032296225
0.3452251212325474, 0.11790430830733616
0.33121890435967477, 0.11795387853451203
0.31623451579468925, 0.11817800491254783
0.30038238274792767, 0.11851093714125989
0.28378503721741805, 0.1188944165823305
0.2665733495769241, 0.11928065803765953
0.2488829642068213, 0.11963409864452736
0.23085094893525765, 0.11993185168831755
0.2126125796580954, 0.12016298826006566
0.19429822847039743, 0.12032688314779848
0.17603111122844906, 0.12043141084224865
0.1579268043989276, 0.12049176486281651
0.14009326155686289, 0.12052899101465729
0.12263072986285344, 0.12056767677834279
0.10563153260744468, 0.12063273505248714
0.08917970076419286, 0.12074542672110986
0.07335057732062211, 0.12091919323295884
0.05821095642639668, 0.12115667298870052
0.043819735353323806, 0.12144826624322098
0.030229164128103152, 0.1217726162606551
0.017486369473677155, 0.12209851270813572
0.005634459592080239, 0.1223879156040636
-0.005287221134537794, 0.12260066441981136
-0.015243257234406098, 0.1226996761341095
-0.024202506642554675, 0.12265573419280074
-0.032138627815600805, 0.12245155941406219
-0.03903080448762609, 0.12208499099150637
-0.044864685915374396, 0.12157117828751923
-0.0496335635239475, 0.12094370581629653
-0.053339808197602284, 0.12025455591860189
-0.055996596100091584, 0.1195727783532201
-0.05762995489422555, 0.1189817147050934
-0.058281208761038025, 0.1185746705242387
-0.05801097833233688, 0.11844939350275013
-0.05690619931780371, 0.11870202737530544
-0.05508047886732246, 0.11942046683052264
-0.052660646707667055, 0.120678066708393
-0.049773758488255514, 0.12252812417647324
-0.04653800437545928, 0.12499959502486734
-0.043057329595949816, 0.12809505880726202
-0.039419837203136875, 0.1317917342451615
-0.03569935195591366, 0.13604557058819722
-0.03195724442166284, 0.1407967220540881
-0.028244050446072463, 0.14597527320559986
-0.024600905490713667, 0.15150645758318765
-0.021060813401736184, 0.15731493109414502
-0.01764976721342891, 0.16332795552671697
-0.014387737819596152, 0.16947755232108472
-0.011289544745978961, 0.17570179421534077
0.41035135004437046, 0.1308962468188431
0.4066981901958625, 0.1274720225922271
0.40177743848821146, 0.12458505953871048
0.3955688651123967, 0.12224035912982081
0.3880684530764718, 0.12042186012168964
0.379286862500794, 0.11909426018796308
0.3692479028256663, 0.1182068646703922
0.35798933112584025, 0.11769850685834014
0.34556457386769407, 0.1175019031573391
0.33204408249341544, 0.11754736734210428
0.3175158227822485, 0.11776609672281053
0.30208440183910734, 0.11809322203428929
0.2858680277465216, 0.11847121036412428
0.2689946159984778, 0.11885281983466436
0.25159810535846233, 0.1192028377527289
0.2338150160168725, 0.11949854020088847
0.2157811698429379, 0.1197289935549144
0.19762853581191814, 0.11989343026642074
0.17948288161250014, 0.11999947184626218
0.1614630530470686, 0.12006196057771212
0.1436807176539293, 0.12010150836860484
0.12624001948692987, 0.12014221688330473
0.10923710744679507, 0.1202085100872227
0.09275951530094022, 0.12032122200022002
0.07688553768425734, 0.12049350088120934
0.061684262581495994, 0.12072788000559197
0.04721622644317322, 0.12101487210153228
0.03353476787679165, 0.12133344795739853
0.02068771104159683, 0.12165291256514524
0.008718605548431528, 0.1219358820201778
-0.002332944783488129, 0.12214291674816544
-0.012431396444757888, 0.12223763518749775
-0.02154556183487691, 0.12219142545868403
-0.029649087588255622, 0.12198745096223941
-0.03672112985411039, 0.12162377972312897
-0.04274724357341035, 0.1211155381360619
-0.04772050584084656, 0.12049601112890387
-0.05164289674609175, 0.11981659366994452
-0.05452696469214374, 0.11914546481926758
-0.056397807127876426, 0.11856483588555815
-0.05729544386793249, 0.1181666699594515
-0.057278731742492775, 0.11804722931959903
-0.05643228077251354, 0.11830111528355644
-0.05486683647370293, 0.1190147326339557
-0.052706089621342725, 0.12026011929555029
-0.050073927466676625, 0.12208954945576511
-0.047085581826124885, 0.12453135390453951
-0.04384249359721499, 0.1275879442768862
-0.04043081113301512, 0.13123682055210978
-0.0369228955095116, 0.135434586207063
-0.033379072105488634, 0.14012231392594524
-0.029849186265583763, 0.14523115838984063
-0.02637398169252567, 0.15068747746725597
-0.022986320266994032, 0.15641703241312208
-0.019712260122529943, 0.16234812333423473
-0.01657200711204703, 0.16841371613801726
-0.01358075327497164, 0.17455272296670546
0.40408971662389687, 0.13044092304925678
0.4007775537003272, 0.1271029978019066
0.39624063985987285, 0.12428501807989602
0.3904570566705257, 0.1219918585533521
0.38341988149207523, 0.12020830971537211
0.37513546549369065, 0.11890076563518023
0.36562188157755954, 0.1180208228480542
0.3549099968878144, 0.11750991037471094
0.34304553904107393, 0.11730342026979718
0.33009085254509074, 0.11733427028573161
0.31612586938874554, 0.11753608981754456
0.3012476544005669, 0.1178461921378935
0.28556757200567906, 0.11820887128137816
0.2692074648249392, 0.11857825693675265
0.2522960379743107, 0.11892000101501975
0.2349654992428499, 0.11921173832412095
0.21734837799301518, 0.11944243571365798
0.1995744832120389, 0.11961084902543474
0.1817685767942062, 0.11972381572862112
0.16404945886738245, 0.1197951039143294
0.14652946084949287, 0.11984398891652759
0.1293138651787999, 0.11989305438018232
0.11250021245609274, 0.11996517029829203
0.09617747066827567, 0.12007978647917372
0.08042522433713424, 0.12024906950569865
0.06531360957375677, 0.12047515234594239
0.05090394401937535, 0.12074882851106947
0.03725009160522653, 0.12105002690199554
0.024400176961114094, 0.12134960643917962
0.01239786213278698, 0.12161218973416361
0.0012827203504548244, 0.12180055797503596
-0.008909827801264866, 0.1218805002576242
-0.018148754524095794, 0.12182528757540473
-0.026407841807348644, 0.12161948311179642
-0.033666288230354315, 0.1212619234622201
-0.03990952118784073, 0.12076777061953953
-0.045130233050099465, 0.12016955475598788
-0.049329662900227056, 0.11951711312589128
-0.05251914889466896, 0.11887630106153277
-0.05472198000714382, 0.11832633562778637
-0.055975620067055774, 0.11795567870075553
-0.05633540168290302, 0.11785680237415815
-0.05588109010499896, 0.11812047633655769
-0.05471727705890999, 0.11882952995532392
-0.052960925228666626, 0.12005298954642678
-0.05072931753644377, 0.12184097606367561
-0.048131725691812115, 0.1242207681092054
-0.04526463465264108, 0.1271949426667583
-0.04221034222387983, 0.13074231404276002
-0.03903833116751071, 0.1348216953728901
-0.035806871781847216, 0.13937693808787985
-0.03256444728871589, 0.1443422273618729
-0.029351018690783853, 0.14964694383129315
-0.026199145874138078, 0.15521968184815554
-0.023134980065940395, 0.16099127754857886
-0.020179141250980234, 0.16689688792317411
-0.017347492789304534, 0.17287726469326892
0.39523419312342006, 0.13010344652262523
0.3921668493057972, 0.12689769414173582
0.3879353322044091, 0.12418513183065885
0.3825181098141965, 0.12197025001802311
0.37590734538874715, 0.12023902989785079
0.36810697217749855, 0.11896042961404045
0.3591310513217346, 0.11808959425345135
0.34900494559886586, 0.11757202785281244
0.3377675176215614, 0.11734736780774968
0.3254730920124952, 0.11735270290624134
0.3121927549019988, 0.1175255909601496
0.2980142677683332, 0.11780689431986548
0.2830395661757108, 0.11814389015960472
0.26738121140866894, 0.11849294946218411
0.25115903279698387, 0.11882112951287076
0.23449702351025292, 0.11910663015596018
0.21752042025601284, 0.11933821820321822
0.20035292744910074, 0.1195138178576356
0.1831145322573744, 0.11963892010890503
0.16592045228356003, 0.11972546330874564
0.14888041632651244, 0.11979045977374678
0.13209789126046936, 0.11985393510786864
0.11566921649059916, 0.11993615076607148
0.09968261893253139, 0.12005424065938973
0.08421727048426864, 0.12021873479621459
0.06934313523919239, 0.1204311044399962
0.055121537239154174, 0.12068261972159994
0.04160643667779592, 0.12095481594081908
