flux,fluxerr
0.29636833134260654, 0.022597943443776913
0.28743319268821116, 0.019618799020971207
0.27787746617063996, 0.017025920096548932
0.2677259408379555, 0.014873121497004083
0.2570114702241098, 0.013207271872951641
0.24577596580026373, 0.01205073404228107
0.23407154677284625, 0.011381280930824952
0.22196233514808936, 0.01112672189415007
0.20952700076026573, 0.01118254237611699
0.19686062888458744, 0.011438635457410766
0.1840715156355075, 0.011798526686659384
0.17127426696710588, 0.012185645387856013
0.1585850590528873, 0.012542663164612507
0.14611885109000028, 0.012829615592392032
0.1339867780480926, 0.013021998193880759
0.12229350996602564, 0.013109235560099082
0.11113455272039988, 0.013093331343230478
0.10059346506552255, 0.012987273466097233
0.09073896626791288, 0.012812740810176975
0.08162190803455092, 0.012596745463696749
0.07327208365948921, 0.012367102712756583
0.0656948465268072, 0.012147135746465833
0.05886787562717519, 0.011950882904815866
0.052742294419052864, 0.011781958322702414
0.04725067917639708, 0.011637175149905872
0.042316568860742615, 0.011511221417228027
0.03786391119569655, 0.011400290312123392
0.03382648179635047, 0.011303994830916637
0.030155787477550888, 0.011226131420669902
0.02682147542232979, 0.011176104949088026
0.02380640071694151, 0.011169594609249663
0.021101290991610806, 0.011225940332888555
0.01869949546068489, 0.011361921997030774
0.01659263723148445, 0.011584060599637782
0.014768911988961714, 0.01188352752504373
0.013212832960807065, 0.012235474991674487
0.011905675134271624, 0.012603847722440992
0.010826169911095591, 0.01294861744816012
0.009951185099182558, 0.013232281863402116
0.009256384338218623, 0.013424537782665866
0.008716871972368615, 0.01350513672948992
0.00830782929402814, 0.013465402699334446
0.008005148027487839, 0.013308969100209058
0.0077860668999713, 0.013052234999659428
0.00762981715945947, 0.012724984421581006
0.007518282944537652, 0.0123715488757424
0.0074366810605495295, 0.01205266791707948
0.007374112767341325, 0.011847927566825544
0.007323325033278704, 0.011857855089264489
0.007279857516908826, 0.01219764141852997
0.007241146088370461, 0.01297490161813132
0.007205650732402777, 0.014259222491985912
0.0071721913359358794, 0.016065527355423187
0.007139754310556328, 0.01836401398480464
0.007107470926058924, 0.021102248107452457
0.007074602736586882, 0.024222629031414113
0.007040528243282621, 0.02767105288383942
0.3160855139504902, 0.02519709296374089
0.30740351056128945, 0.021885192182310685
0.29798006234893637, 0.018997158120924514
0.28783336191316833, 0.016595370354741703
0.2769904372268832, 0.014734507585405836
0.2654883542302293, 0.013441703788925875
0.25337567233141184, 0.012693788135235312
0.24071517044750187, 0.012411257865224387
0.22758806373687035, 0.012478175188045728
0.21409742685683567, 0.012771939071468633
0.20036493977006528, 0.013184532756677796
0.1865226739358062, 0.013629359663346696
0.17270723217097086, 0.014040657783491745
0.15905609693631434, 0.014371850305997132
0.14570420231216627, 0.014593864133885855
0.1327804827793039, 0.014693765482520915
0.12040436187109117, 0.014673477198477477
0.1086821436145309, 0.0145480933031373
0.09770326905835859, 0.01434326233931376
0.08753639932278139, 0.014091194150361277
0.07822528549344772, 0.013825143608214732
0.06978438448967739, 0.013572868120654608
0.06219462826504968, 0.013350663883185059
0.0554045012324887, 0.013161961930815298
0.049339536702871535, 0.013001877988297935
0.0439136275264341, 0.012863040451318468
0.039040238978782726, 0.012740040881887805
0.03464357866016909, 0.012631699316765856
0.03066797725201949, 0.012541933236073822
0.027078429527753283, 0.012481578020414212
0.023854839286627027, 0.012469395605578446
0.02098579613716719, 0.012529048547204632
0.01846245479646024, 0.012681521870469897
0.01627350570738485, 0.012935581698116976
0.014403346390616176, 0.0132813891335117
0.01283196090536286, 0.013689605742715848
0.011535536983621931, 0.014117337319574527
0.01048733886923616, 0.014517054775504997
0.009658557835997455, 0.01484451669444472
0.0090191363683011, 0.015064361946453117
0.008538574538293774, 0.015153429781336207
0.008186726989881278, 0.015102423902072351
0.00793459887062796, 0.01491659524542955
0.007755149037222793, 0.014616020064532966
0.007624108898572382, 0.01423596833271951
0.007520825352940757, 0.013827793317393812
0.007429134463638598, 0.013460565901818211
0.007338064449264288, 0.01322352008373281
0.007241460802503612, 0.01322867658932843
0.0071367741508241034, 0.013604368915944272
0.007023791016383345, 0.01447049669767459
0.006903399428529616, 0.015903983664485064
0.006776655708348761, 0.017919690326704
0.006644534823739053, 0.020481799781730623
0.006507928393016398, 0.02352906053780342
0.006367650654964349, 0.02699462348991448
0.00622444404756159, 0.030815820355579372
0.33256027683199546, 0.028117286485004524
0.32466985930971076, 0.024405393707392684
0.31588046204156645, 0.021160217810546337
0.3061978298936543, 0.01845611282041449
0.29563743403380943, 0.016358864535566345
0.2842260118739078, 0.01490262137270245
0.2720035283645299, 0.014063300888674309
0.25902747899808387, 0.013751974005020887
0.2453799556863209, 0.013838448397709945
0.2311737311574841, 0.014185118093346228
0.21654891251101224, 0.014670229865690559
0.2016624796420444, 0.015194698882616564
0.18668056048163198, 0.0156813963139062
0.17177339466990904, 0.016074133558733654
0.15711060733849475, 0.016336740834635557
0.14285648270731768, 0.016452333497274926
0.1291651771453786, 0.016422417481728797
0.11617581117894123, 0.01626525766382693
0.1040073790242356, 0.01601286093023678
0.09275341284354847, 0.01570597749384602
0.08247633706450161, 0.015386875027335666
0.07320144598086344, 0.01509052722703193
0.06491102832752614, 0.014836477347997848
0.05754542492483779, 0.014626972715294883
0.05101512109089344, 0.014453303206446283
0.04521517853416925, 0.014303791225002508
0.040039505708410465, 0.014169678349451405
0.0353950604126079, 0.014047878559534863
0.03121379380157101, 0.013941913943681966
0.02745340745256719, 0.013864491899019074
0.02409015509575996, 0.01383933913767374
0.021111075915236976, 0.013897670300579147
0.01850637220374104, 0.014068283288148256
0.01626318600697538, 0.014364635134464452
0.014363464543406522, 0.014775971689563358
0.012783952997927143, 0.015265936129514799
0.011496987318987927, 0.01578057747600372
0.010471551500169585, 0.016260331886091797
0.009674300220043548, 0.01665042427159351
0.009070545539706466, 0.016907946730872574
0.008625219906526382, 0.017005825159505175
0.008303827516677648, 0.016934571029186152
0.008073395985119055, 0.016702697239359524
0.007903440259839774, 0.016336480177147897
0.007766950796648458, 0.015879621375117534
0.007641418182487482, 0.015393325794625805
0.0075099041476794645, 0.014957220305363313
0.00736190213723586, 0.01467174439586817
0.007192824987023633, 0.014662257642739396
0.007002427183116136, 0.01507345952926154
0.0067931594162595815, 0.016041646095817583
0.006568570829474287, 0.017653786413402713
0.006332109339106316, 0.019924109723034353
0.0060868249186962, 0.022807573847713064
0.005835397913308459, 0.02622996449337573
0.00558017504531779, 0.030111209879287004
0.005323202281142578, 0.0343766370328529
0.3462449041522641, 0.03139107136149274
0.3397727457656249, 0.02719121177383437
0.3322084323403845, 0.023508603364815483
0.32353574479274533, 0.02043430769589382
0.31374883917388946, 0.01804947044581793
0.3028542864692329, 0.01639752746277303
0.2908738340741012, 0.015452308194658666
0.2778514285853079, 0.015111782707780668
0.2638652905224057, 0.015228147388700413
0.2490387053659131, 0.015646876027908596
0.23353653415875084, 0.016230979938383454
0.21755083648819032, 0.01686617573222232
0.20129001383329517, 0.01745964112936891
0.18497157097484526, 0.017940582037932355
0.16881536594722404, 0.018261248149966828
0.15303691517557627, 0.018397782581317863
0.13784064665048354, 0.018350347280830903
0.12341299392438689, 0.01814185142050272
0.10991522226441651, 0.017814468238589537
0.09747587581036468, 0.017423057069979635
0.08618273104570857, 0.017024986622542336
0.07607413758942487, 0.016667192248168688
0.06713045718493167, 0.016373994270879
0.059275132540171124, 0.016144454203315742
0.052391161645074756, 0.015962219011306667
0.046340767288204396, 0.015807570254370018
0.040984784877373094, 0.015665716911729792
0.036201946474688565, 0.015529985816773582
0.03190511388951863, 0.01540248380538288
0.028042284759325558, 0.015298048074870728
0.024586798171944084, 0.01524799278556402
0.021526825037731217, 0.015296229286575709
0.018855092713711694, 0.015485530679340208
0.016560531136063976, 0.015838471786997415
0.014625490429585112, 0.016343804178055827
0.01302580345433082, 0.01695398698390199
0.011731806199749721, 0.01759698223585117
0.010709657359395861, 0.01819379441330155
0.009922599699330877, 0.01867314999688808
0.009332165723279672, 0.018980926446033032
0.008899346314556902, 0.019084979331309124
0.008585740657295681, 0.018976833529217783
0.008354705535963765, 0.018671452929330465
0.008172522080661281, 0.01820587919433035
0.008009598165963352, 0.017637306621884088
0.007841724984148516, 0.0170412166385537
0.0076514035972276035, 0.01651045222065873
0.007428917123362773, 0.016157278139808134
0.007171668020816606, 0.016120922825625952
0.006882171036444507, 0.016565630385922847
0.00656596959312329, 0.017650050471102786
0.006229617767785295, 0.01947627512736922
0.005879177170336644, 0.02205827523511702
0.005519879688769205, 0.025337828408039182
0.005156206333073859, 0.029222048231454148
0.004791971316644404, 0.033611994620670466
0.0044303978154725775, 0.038416069686896995
0.35641196241052014, 0.03478023898010647
0.35195749600755855, 0.030019215371837576
0.3462042602595362, 0.025833375272666503
0.33910174583614816, 0.022335860980746493
0.33060945037069644, 0.01962731784429319
0.3206995459514448, 0.017761131671895865
0.30936077328365036, 0.016704848292196806
0.29660989608587085, 0.016337529020584836
0.2825121626443262, 0.016491616976780785
0.26720002197797543, 0.01699763770084583
0.25086934335570094, 0.01770573984023666
0.2337584158864039, 0.018485414181954637
0.2161320690218288, 0.019223024203413885
0.1982711933557291, 0.019825989161250435
0.18046310289268877, 0.020228053781095507
0.1629920720628835, 0.020393426119070447
0.14612985259753836, 0.02031896310868399
0.1301259758573769, 0.02003377631885504
0.11519764381498354, 0.01959529742495894
0.10151900712374251, 0.019080408966279123
0.08920962151525018, 0.018570494220482885
0.07832186455470141, 0.018131349856660733
0.06882829875606385, 0.017793815045235677
0.06062280754595992, 0.017549991365639072
0.05354391118650746, 0.017369825398725704
0.04740256240875154, 0.01722047229746599
0.04200945187506688, 0.017078166026462012
0.03720217233594523, 0.016930981071439286
0.032868087328650916, 0.016777971905027313
0.028945433655124055, 0.01663536605137638
0.025409039816291848, 0.01654446106689584
0.02225514388312131, 0.016568435042561478
0.01948662501268287, 0.016773018567931734
0.01710103102074639, 0.0171970043043878
0.015086626318649321, 0.01782990956120952
0.013422494798646907, 0.01860723244912085
0.012079945006217738, 0.019428863080729344
0.01102429840941554, 0.02018620045117575
0.010216568865476528, 0.02078371252451847
0.009615042030010913, 0.021151740472821104
0.009176785506591643, 0.021252311380721495
0.008859119659181895, 0.021080500679472744
0.008621078492426016, 0.020663034164960695
0.00842488983983157, 0.020054914869790188
0.008237504285715423, 0.0193344397948808
0.008032202784929804, 0.018597244190471873
0.00779030966958986, 0.01795115590972124
0.007502595382967228, 0.01751708146349549
0.0071684470820097684, 0.017443587033604813
0.0067933131865668675, 0.017914585632658447
0.006386063768360239, 0.01911807436538797
0.005956443041451168, 0.021179971261061005
0.005513188681668854, 0.024117068107670888
0.0050636568454463645, 0.027854563451249155
0.00461397877646018, 0.03227448352387827
0.004169216689957887, 0.03725236833870442
0.0037335022446947654, 0.04267390995508077
0.3625082070567089, 0.03818333833191171
0.3607632722283582, 0.032766507892814024
0.3575161052456346, 0.027994835974125235
0.35266423018869847, 0.024012379809044138
0.34611242072780235, 0.020945322007665787
0.3377760277327646, 0.01885532462778654
0.32758640065911443, 0.017692054930272014
0.31550977465933766, 0.017302889184753093
0.3015822945971746, 0.017498670375151983
0.28594254715449496, 0.01810366993823653
0.2688269359631899, 0.01896459896762443
0.2505366818014919, 0.01993594332319338
0.23141348778215073, 0.020875009723244964
0.21182429472622002, 0.021654520648737373
0.19214759509558513, 0.0221771205924978
0.17276016740513886, 0.022386024141217528
0.15402387024787897, 0.02227095302404559
0.13627213746060934, 0.02186940150394346
0.11979581190614644, 0.021262361577187357
0.1048279456465603, 0.020562175074119032
0.0915271788131579, 0.019889716569188885
0.07995928875698562, 0.019341397121015475
0.07007829652570882, 0.018956330715097117
0.06172776702448094, 0.018711202607371438
0.05467491029968544, 0.01855099875112623
0.048651100221651714, 0.01842237624396656
0.04339154633322218, 0.018290397362883605
0.03867482329244069, 0.018137460787508042
0.0343561353009567, 0.017957033218996644
0.030367974084624143, 0.017763445352016315
0.0266978384454768, 0.017609086820458465
0.02336485619120351, 0.017585399813646936
0.020397182604066606, 0.017796077568950002
0.01781375280586025, 0.01830944932563047
0.015618383726006125, 0.01911924476006413
0.013800066274120821, 0.020134595822904302
0.012335197614944659, 0.02121050416357256
0.011190335204560137, 0.022192120878838248
0.01032471942881979, 0.022947496575116796
0.009692588850672507, 0.02338505024991496
0.009245345038852014, 0.023460341767124707
0.008933621560239769, 0.023176734501117707
0.008709310160826475, 0.022582229966109157
0.00852759641584573, 0.021762835026610673
0.008349057188495511, 0.02083191250128651
0.00814187309893927, 0.019915640407585988
0.007884205147775077, 0.019138093026356696
0.007566177095221574, 0.01861854289854887
0.007188831607441037, 0.018500680025497367
0.006760753248407986, 0.018983693725541893
0.00629460242404607, 0.02029710500698866
0.005803787279531592, 0.022609698455077265
0.005300030030683423, 0.02595030485423961
0.004792943287955834, 0.030223526871370567
0.004290306748199557, 0.03527591033905232
0.0037983313134336847, 0.04094654750122903
0.0033218899105319707, 0.04708921028414944
0.36361843933291743, 0.04118569991207314
0.36505044749200594, 0.03505456669688978
0.364823631253609, 0.029648495016185723
0.3627665004993491, 0.025154329797710186
0.35870787646520674, 0.02173187091306342
0.3524805336572138, 0.019445973358703045
0.3439282861082077, 0.018206041016099003
0.3329363691470675, 0.017805432856016084
0.31948992449555685, 0.01803362730273922
0.3037288394099875, 0.01872925035600293
0.28594084777565804, 0.019757372494972118
0.26650783141006235, 0.02096394056677891
0.2458681063971419, 0.022166746211655968
0.22449498208526503, 0.02318577878981166
0.2028781889524318, 0.023875451402928613
0.18150615046443222, 0.024146104637738565
0.16084846062910252, 0.023975287876881277
0.1413379363145022, 0.023411273195865282
0.12335160662136106, 0.022568743479150954
0.10718998208403144, 0.021612721117005792
0.09305391392190471, 0.020724110774587908
0.0810183085084833, 0.02004487339511456
0.07100459423705607, 0.019621252054943018
0.06278226483864278, 0.01939817873239167
0.05601813274316141, 0.01927877158600365
0.050334598569528495, 0.01918302265498717
0.04536654302653878, 0.019068989315016882
0.04081820652937792, 0.018918817576603224
0.03651105367024197, 0.01871799706113118
0.03238286350739512, 0.018470337910532462
0.028452691185691062, 0.01823406247093732
0.024784633576613094, 0.01813516613519654
0.021453015683922057, 0.01833350174732657
0.018514504197557832, 0.018946855997111985
0.015999731163977352, 0.019980976331123744
0.013914507556861954, 0.021307910906494032
0.012243747546063057, 0.022716882181737452
0.010955987258522731, 0.023987062622386746
0.010007405987811921, 0.02493655831793421
0.009345414454257534, 0.025445147697579548
0.008911920251428678, 0.02546154708693727
0.008646374165678008, 0.02500319425978242
0.008488696606932408, 0.024151354573155915
0.008382180869221673, 0.023040572352852676
0.008276469307487691, 0.02183928016023629
0.008130699761762332, 0.020719290464084866
0.007916914517940734, 0.01982029959034067
0.0076229583759300865, 0.019237992763843352
0.007251128875155802, 0.019080993560035453
0.006813564257444762, 0.019550287224640923
0.006327550028595005, 0.020934229723720305
0.005811042989022164, 0.023477403302167774
0.0052794283352679975, 0.02723832812932062
0.0047450271923024845, 0.03209613121744504
0.0042175492105661315, 0.03784729395869965
0.0037045119327003815, 0.04428038876612738
0.00321160115935933, 0.051206766187898496
0.3606255467162481, 0.0434645122094598
0.36514280214863254, 0.03665243308223079
0.3679274399645098, 0.03064149918168112
0.3687336959748669, 0.025671154144085873
0.36730474793909373, 0.021943668512080575
0.36337581955731413, 0.019523240366506225
0.356682431985077, 0.018255262675783396
0.34700550626441734, 0.017855461468781607
0.33426121220903976, 0.01809427599349694
0.3185856765891918, 0.018849718895325177
0.3003238278744493, 0.020031625714454104
0.2799461976739592, 0.02148666449704545
0.2579935617202786, 0.022984479352158978
0.23504901444101808, 0.024277599358587653
0.21171479933272133, 0.025159927507957595
0.18859053680542218, 0.025501525639863944
0.16625184839525536, 0.025264951125748752
0.14522839262507534, 0.02451069016350927
0.12598031734585993, 0.02339338088265259
0.10887209848950835, 0.022142665194997198
0.09414267516438281, 0.021015223037374603
0.08187070622274793, 0.0202093304393062
0.07193735233422323, 0.019772031744731227
0.06402797335014151, 0.019595724064550082
0.057698322163094305, 0.019525836743902198
0.05245253305732622, 0.019456832881474852
0.04781910741543005, 0.019353739303487147
0.043427215790970364, 0.019211548129603954
0.03907098139937156, 0.01900750058118262
0.03470586500882143, 0.018722491585369806
0.030397781005086444, 0.01840734740495493
0.02627114561208807, 0.018219120861413803
0.02245922008381108, 0.01838436354026624
0.019064750247265446, 0.01908828458967645
0.01614956457297577, 0.020359489099712517
0.01373797773698883, 0.02202758661203559
0.011823280207100153, 0.023802576118168006
0.010374613337816878, 0.025386463809856
0.009342926246858046, 0.026540898654043618
0.008666156871104889, 0.02711394190936126
0.00827382901023385, 0.027046906947996007
0.008091242974627, 0.026373570279604637
0.008043427427532527, 0.025214845186919414
0.008059013953532129, 0.02376575272874284
0.008074193676345043, 0.02226655336727716
0.008036916843202785, 0.020949400490428934
0.007911490566263857, 0.019968475070484087
0.007682551878527834, 0.0193702369130999
0.007353347840803443, 0.019192694708198885
0.0069396616373796505, 0.019620712354944114
0.006463691745930564, 0.021017304193173332
0.0059482584671755505, 0.02373733727539629
0.005412639927175846, 0.027886055203575625
0.004872010328179054, 0.03330959860151046
0.0043381005091168556, 0.03974019906821021
0.0038197971395562942, 0.046905942822540854
0.003323650157927971, 0.05457098247060571
0.35437442863546464, 0.04509563913149801
0.3617368695043507, 0.03766372669244817
0.3673736738848929, 0.031096518828342537
0.37096607693779055, 0.025693675656102564
0.3721688347410723, 0.02171083509595814
0.37061161705457923, 0.019213012929668035
0.3659074632762749, 0.017961870476628436
0.35771507558489185, 0.017573642790966695
0.3458668801910777, 0.017801299015071853
0.3304902088032257, 0.018584186792136338
0.3119899413604754, 0.019900664829322363
0.29092783354950313, 0.021605739576465242
0.2679460067584634, 0.023412588596439653
0.24373284452804392, 0.024995197591565904
0.21899601419328557, 0.02608010909917082
0.19443751303676593, 0.026494279125297303
0.17072932267716423, 0.02618456385664128
0.1484882852014135, 0.02522423892215569
0.12824879982825116, 0.023810682981801033
0.11043188337982361, 0.02224545691134942
