flux,fluxerr
0.2661975462482576, 0.01811245923255907
0.25412632221606585, 0.014241710780925796
0.2412174931784744, 0.010843595155720403
0.22754311241305694, 0.007989039420874455
0.21319721870030978, 0.005766874880523415
0.19829902343196582, 0.004277088575831315
0.18299646500758526, 0.0035417932994285207
0.16747085428454597, 0.003352906312989359
0.15194768206973108, 0.0033903654655315883
0.13670966712706292, 0.0034655129292135343
0.1220719961330561, 0.00352968642982585
0.1083136594468234, 0.0035887508228464498
0.09561281428148698, 0.0036378040792731077
0.08403765609460556, 0.0036605686794990177
0.07357709861965313, 0.003661543695798959
0.06417426148824235, 0.0036691121172172216
0.055759100163704216, 0.003697548738817566
0.048272838009784394, 0.003713322369192589
0.04166882075651167, 0.0036655683746247185
0.03590261554667799, 0.0035434912605392262
0.030921565812082188, 0.003417897958016715
0.026654870294196668, 0.0034526207379024796
0.023013307289263634, 0.003843950874931058
0.019905307238324857, 0.004667095300904397
0.01724951985670901, 0.005818191326851062
0.014975968889276926, 0.007125709678213728
0.013024826625243702, 0.008428678775740014
0.011345265089514812, 0.009590724306240955
0.00989440392062608, 0.010497393914375515
0.00863634430006932, 0.0110536676702135
0.0075412789788527205, 0.01118351795225894
0.006584669050962909, 0.01083129326537212
0.005746478653902199, 0.00996574501527324
0.005010459237936548, 0.008591028711711458
0.004363475440515029, 0.006783331267000686
0.003794864933362861, 0.00484831802209197
0.0032958248796707214, 0.00396498046870256
0.002858823666505786, 0.00576136913010531
0.0024771497775078906, 0.009309989794764313
0.0021447473227467553, 0.013657119080321418
0.0018561541193912816, 0.018499416763086522
0.0016064478374173523, 0.023709902634399253
0.0013911967635407772, 0.02921073291930412
0.00120641480373793, 0.034942460005771774
0.0010485203747505278, 0.04085481826124891
0.0009142988630336415, 0.04690340797758062
0.0008008683551599356, 0.05304831160223398
0.0007056483674963333, 0.059253428594328125
0.0006263313247508056, 0.06548610097311572
0.0005608565573605417, 0.07171686240606669
0.0005073866059133237, 0.07791924085450451
0.0004642856382964928, 0.08406958433208314
0.0004300998007453834, 0.09014689649543063
0.00040353933868342686, 0.09613267656831448
0.0003834623365507808, 0.10201076170267281
0.00036885993815333087, 0.10776717153217945
0.0003588429204405038, 0.11338995538805964
0.2735563974470198, 0.01926186844284007
0.26281636756624444, 0.015204373523331349
0.25110250355058084, 0.01162880244211379
0.23846260982427328, 0.00861444931903466
0.2249652034925967, 0.006259909693552839
0.21070283021913486, 0.004674704072500843
0.19579579199510477, 0.0038850611839642336
0.18039769132507935, 0.0036765814102764837
0.164712818892771, 0.0037145925069886243
0.14902137753648229, 0.0037969580115751024
0.13366051546435204, 0.00386845942307465
0.11895312018990112, 0.003933453563534071
0.10513902152727213, 0.003986686226657602
0.09235951505191763, 0.004011589838243458
0.08068004180709393, 0.0040133345108375575
0.07011546043063195, 0.004021725781542576
0.06065439080515492, 0.004051257810246497
0.05227728069668777, 0.004066052874206673
0.044956943312364266, 0.00401254395908835
0.03865096389229743, 0.0038805477459786025
0.033293446532041394, 0.0037472497359236417
0.02878722302868309, 0.003787836056765404
0.025008129462105483, 0.004209196231877982
0.0218297467045799, 0.005089041412949506
0.019141877029893523, 0.006316201292100131
0.016852001757286857, 0.007707273989048758
0.014883221781925218, 0.009089828990213438
0.013172343117120969, 0.010318134068241128
0.011668132590804193, 0.011270581620869321
0.010329723469932673, 0.0118470297953094
0.00912515212076889, 0.011968279606915024
0.00803000798218082, 0.011577545951069176
0.007026180143204186, 0.010644880661284184
0.006100684682195591, 0.009179355915038752
0.005244557649451052, 0.007269327977198899
0.004451799164418107, 0.005250692160125009
0.003718354555604803, 0.004349781760410697
0.003041130214477111, 0.006199490045534012
0.002417263849410214, 0.0098837021160817
0.0018439429187643512, 0.014408464904708106
0.0013184110424492807, 0.01944181755366338
0.0008379781750474492, 0.024843044090451426
0.0004000288471244218, 0.030526370952261545
2.0287077702771464e-06, 0.03642700234455915
-0.00035847042263311725, 0.04249077138657117
-0.0006838268017635569, 0.04867035755029134
-0.0009763061487805295, 0.05492367392186303
-0.0012380800114915463, 0.06121306773154604
-0.0014712249828482081, 0.06750485348438345
-0.0016777226468914247, 0.07376899027286753
-0.0018594601474195883, 0.0799788241024559
-0.00201823128425507, 0.0861108606005493
-0.002155738052935564, 0.09214455283779747
-0.0022735925530245294, 0.09806209777373481
-0.002373319199096862, 0.10384823890717959
-0.0024563571760468617, 0.10949007458144265
-0.0025240630876365165, 0.11497687220673256
0.27453178251886073, 0.02133580043709266
0.2662243139360039, 0.016895364930963472
0.2567335101878084, 0.012952911207583172
0.24606839557433954, 0.009606766254620798
0.23425808131640072, 0.006978696244903429
0.22135576501113532, 0.005204596495121534
0.20744331177688247, 0.00432468729513008
0.1926389259791566, 0.004097504808997918
0.17712589004494567, 0.004142385384337217
0.16119767539871874, 0.004234013102911227
0.14524376632174354, 0.004315045030463954
0.1296643411249163, 0.004393114800888974
0.11478591049359767, 0.004458666917991898
0.10083667859645844, 0.004486999890169888
0.08796445740638684, 0.004483717873834573
0.0762572587581457, 0.004489365349209756
0.06576263875621392, 0.004526413188813014
0.05650178804126232, 0.004551332602552157
0.04846984324562995, 0.004495626372259645
0.04162957413057778, 0.004342772498920408
0.035904106029356946, 0.0041811724224578095
0.0311699642985317, 0.004217113698685294
0.027265766357072056, 0.004698122467528245
0.02402759910553219, 0.005717321572258445
0.021314869713146868, 0.007139779185675693
0.019012021373731147, 0.008747511933287226
0.01702532803593777, 0.010338869329973252
0.01527996235803057, 0.011745303683232799
0.01371736181134748, 0.012827542600053258
0.012292854554741156, 0.013472251172663104
0.010973509615333719, 0.013591298532088182
0.009736178436683993, 0.013123293210960918
0.008565697017828139, 0.012038402097693138
0.007453219686187441, 0.010351791563627148
0.006394657041398435, 0.00816833329337025
0.00538919178975077, 0.005870404264271727
0.004437847071772785, 0.00483944654200086
0.0035421001993269294, 0.006893746228560786
0.002702879588552623, 0.010963304125105405
0.0019203990113420188, 0.015920646991052553
0.0011942702634825382, 0.021388685344379942
0.000523609585470137, 0.027205387715641054
-9.286968185883383e-05, 0.033271327974634585
-0.0006567766595152779, 0.03951181112487543
-0.0011699733231589895, 0.04586526391636063
-0.0016345144838909227, 0.052278905659319454
-0.002052596244610925, 0.05870682136207766
-0.0024265119370264192, 0.06510893681046981
-0.00275861465002408, 0.07145036607557702
-0.00305128555542914, 0.07770092503283488
-0.0033069073227317467, 0.08383472479285618
-0.003527841991473587, 0.08982980769840454
-0.003716412739173244, 0.09566780952969609
-0.003874889044796707, 0.10133364094229173
-0.0040054748037602304, 0.10681518540862434
-0.0041102990002896585, 0.11210301281433024
-0.004191408588079105, 0.1171901086236303
0.2701671756449876, 0.024059725558894348
0.26502719474866465, 0.01910509881420207
0.2585049531864546, 0.014661986707309501
0.25055248128014174, 0.01085706089607868
0.24113900866901258, 0.007847629758769082
0.23025579435204124, 0.005812393933113603
0.21792182108298383, 0.004816639699145401
0.20419467804246988, 0.004574085227943679
0.18921763246241655, 0.004630919942372537
0.17329703723352652, 0.0047321135215790955
0.15689467899229526, 0.004823988024087813
0.1405168429650022, 0.004922803944416457
0.12460267725692183, 0.00500979411432659
0.10948634877827858, 0.005042551256763573
0.09541145345719905, 0.005026416263825705
0.08254839626708484, 0.005023500220463341
0.07100989912161944, 0.005073829524971048
0.060861946311065944, 0.005120716356714112
0.05212431007412714, 0.005067731474660368
0.04476561655142791, 0.004885179062765474
0.038696836751410175, 0.004676993578584329
0.03376472956290508, 0.004697354738207701
0.029765436722909086, 0.00526128576205872
0.026492803015259987, 0.006489316561796701
0.023773126793066864, 0.008207221398753548
0.021466881451152296, 0.01014233798881539
0.019463835637126406, 0.01204881558552843
0.0176786837891472, 0.013724202092885102
0.016047197573422847, 0.015003095185683494
0.01452282490874526, 0.015752695541245025
0.013073669885472702, 0.015871729367296274
0.011679792551104927, 0.01529197694606675
0.010330772314068992, 0.013983414867426795
0.009023482671959949, 0.011968855472313722
0.007760028149256632, 0.00937344463438966
0.006545796772963725, 0.006638185851785435
0.005387583153024355, 0.005384766794760116
0.004291764266407876, 0.007759521067382252
0.0032630157455048373, 0.012396445562676245
0.0023042298147865977, 0.017961439620890033
0.001416816802234703, 0.024021159539061435
0.0006009761881145191, 0.030387642112911083
-0.00014407087975381274, 0.03694471723672758
-0.00081988276259038, 0.04360582954638271
-0.001428627921748832, 0.05030105599193587
-0.0019729411487155474, 0.056972109612801324
-0.0024558021044414975, 0.06356996529187785
-0.002880433234556409, 0.0700534743976241
-0.0032502144786176437, 0.07638839732386023
-0.003568612503578209, 0.08254663353249003
-0.0038391224680958632, 0.08850555805868703
-0.004065220569406056, 0.09424742520037588
-0.0042503258412711475, 0.09975882199784246
-0.0043977698633865065, 0.1050301636376309
-0.0045107732121979875, 0.11005522706280339
-0.004592427632745339, 0.11483072079971393
-0.004645683043324302, 0.11935588964022559
0.2618146502465736, 0.02702683868858786
0.2600700085428971, 0.021509465231202684
0.2568224733825058, 0.01650684437805823
0.25195348492411274, 0.012180118980071186
0.2453542158926102, 0.00873127071617616
0.2369307563059413, 0.006395835168170988
0.22661048304055043, 0.005275967301954929
0.21435666206939089, 0.005026084295741771
0.20024187303669258, 0.005098022168851912
0.18457298294112723, 0.0052058784725368765
0.16789352498503682, 0.005307694150903794
0.15083589302773712, 0.005434832671921991
0.13397094428872214, 0.005553337658672863
0.11775277220820603, 0.005591163956807844
0.10253038683968306, 0.005551806755454384
0.0885628081603399, 0.005531529168192267
0.07603130890724477, 0.005599907565669422
0.06504765322989384, 0.005681204574580993
0.05565563372226258, 0.0056374593880638285
0.04782825490205947, 0.00541999483900183
0.04146235018410569, 0.005151796312448657
0.03637243823111516, 0.005145559637661438
0.03230955365542604, 0.005803876024363788
0.029023713986455577, 0.0072855195765567015
0.026308210836477608, 0.009364552103428363
0.024000897660754694, 0.011699154172139957
0.021977100828055658, 0.013989479366624336
0.02014341681135639, 0.015992109231690067
0.018432367075314208, 0.017510214619841702
0.016797778858257482, 0.01838776334522612
0.015210774075496843, 0.01850799736051773
0.013656260407987283, 0.01779483757507479
0.01212982847802032, 0.01621817308724718
0.010634967012672907, 0.013809376550647297
0.00918051418695836, 0.010714957309246242
0.007778268025477905, 0.007437052941913049
0.006440681901001887, 0.005891192291577971
0.005178608930318452, 0.008663510129870235
0.003999761609804953, 0.013966462505202115
0.002908798427160373, 0.02021600975954209
0.0019079041590262967, 0.02692173864710823
0.0009972950449301783, 0.033869965627095704
0.0001756431871723176, 0.04092823076406623
-0.0005595683798245882, 0.047999191049363586
-0.001211750012821775, 0.0550063057647921
-0.0017849605551976877, 0.06188807320373
-0.0022837057356045075, 0.06859506711594887
-0.0027127734070596034, 0.07508804560202839
-0.0030771000417900854, 0.08133653514512197
-0.003381663663045629, 0.08731766116999612
-0.0036313990623815643, 0.09301513079169377
-0.0038311317318419323, 0.09841832624278568
-0.0039855274455937876, 0.1035214892989386
-0.004099054864472658, 0.10832298624727565
-0.004175958917617228, 0.1128246468119345
-0.004220243045481978, 0.11703117200239074
-0.0042356586741156945, 0.12094960640929946
0.24957125118769538, 0.03001814099544888
0.25129521206381517, 0.023929997623044697
0.25150390981492143, 0.018344887652064143
0.2499983850972928, 0.013462950392224168
0.24657530482485282, 0.009538586248235278
0.24103122689929607, 0.006878462147686799
0.23316825654063322, 0.005636563200978357
0.22281213682373222, 0.005392222481779559
0.2099223291082157, 0.005481380849033992
0.19478533564358014, 0.005589936521782552
0.17803273962744995, 0.0056985007099262
0.16044301458765983, 0.0058628272534724645
0.14273862937171938, 0.0060260468305432776
0.12550832559791883, 0.006069783714490301
0.10921668817458309, 0.005992727946509114
0.09421771294698031, 0.005942161913916887
0.08076408533735538, 0.006034050797747321
0.06901299315576565, 0.0061649792788152245
0.059029923039440005, 0.006138175831977518
0.050789357687488504, 0.005881447268816544
0.044171439795089196, 0.005541942322036662
0.03895670886238421, 0.005497290185987628
0.03485043455782279, 0.00625374247317647
0.03155956780492331, 0.008021284741326877
0.028846506646233828, 0.01051151803386656
0.02652935736282449, 0.01330134896301376
0.02447210197161101, 0.016029288296070306
0.02257619805512488, 0.01840538239027554
0.0207735064068877, 0.020197187297068393
0.01902032450790604, 0.021222535010365626
0.017292331302402895, 0.021347466383002965
0.015580271574250772, 0.020487339295494865
0.013886226915813557, 0.01861199058969717
0.01222033521921176, 0.01576157284091279
0.010597832120626486, 0.012102867629631546
0.0090362961338219, 0.008194006722313935
0.007552984495479219, 0.00628506505176775
0.006162196686273357, 0.009526308870895998
0.004873528740279014, 0.01556087934524017
0.003692211785434532, 0.022526652161624017
0.002620046493971533, 0.02988307662640646
0.0016561940331162872, 0.03739421369433054
0.0007978251042697444, 0.044913963156963735
4.064960113095481e-05, 0.05233707026492185
-0.0006206539036380709, 0.059583649171751754
-0.001192092489153641, 0.06659256625151895
-0.0016800831334016655, 0.07331773590605749
-0.0020912350807493155, 0.07972557028189048
-0.0024321803385329854, 0.08579298082416845
-0.0027094438566225183, 0.0915057014482032
-0.002929346265417081, 0.09685683631540581
-0.003097933176532099, 0.10184558656928974
-0.003220926013277672, 0.10647613113566907
-0.003303690158115531, 0.11075664528619227
-0.0033512169016856764, 0.11469844427996864
-0.0033681162700503016, 0.11831524097253723
-0.0033586183085521156, 0.1216225070560719
0.2340241529658534, 0.0325709243633681
0.23895617260401106, 0.02597915253704398
0.24248165234151287, 0.019863240992001804
0.2443225915662339, 0.014461954638942754
0.24417557688703925, 0.01008361971838013
0.24171299029068244, 0.007114443666510926
0.23658542183567355, 0.005775137618833014
0.22844168010985766, 0.005555693227912926
0.21708534152546127, 0.005661757392741218
0.2027579353801453, 0.005761180186278975
0.18617891619884078, 0.005869198370252371
0.16828400297415994, 0.006077932371146193
0.14995680277686538, 0.006299886642248536
0.13192437797294213, 0.006350445272333306
0.11476621933564202, 0.006218682146478604
0.0989279284355964, 0.0061219159671521434
0.08472871129989851, 0.006242963224363879
0.07236570698195392, 0.006438902665187455
0.061921281340494246, 0.006435758195400584
0.05336835814736212, 0.006138293929912991
0.04656984175457421, 0.005724796169359282
0.04127455217556165, 0.005632550751939967
0.03714666582862593, 0.006472372595146025
0.033855895499916806, 0.008519981399954813
0.031139597440031253, 0.011422450932494915
0.028801450431742717, 0.01467223290640414
0.026698598948718767, 0.017845199704005037
0.02473091908574586, 0.020603943127386046
0.02283218557558538, 0.022679578058339783
0.020962796975707333, 0.02386325409484729
0.019103764329701428, 0.024003497929580803
0.017251708171131634, 0.023006813994673424
0.015414640666385598, 0.020842325153285355
0.013608334819092729, 0.017557009828357298
0.01185310163994819, 0.013331714872229958
0.010170809522258925, 0.008759787578541223
0.008581988108757755, 0.0064297108109707775
0.007102920732037221, 0.010188352060594525
0.005743774643557833, 0.01694679171597519
0.004509235413304459, 0.02457444260284696
0.003399813264047409, 0.03250164720525803
0.0024129212136090854, 0.040479048134202306
0.0015437390908252717, 0.0483525567633308
0.0007859009557667646, 0.05601377752710905
0.00013203735282484881, 0.06338389648623718
-0.00042580133374416437, 0.07040627558615371
-0.0008958185087335849, 0.07704195124351973
-0.0012862237403535718, 0.08326634953968164
-0.0016050487353799759, 0.08906664370328338
-0.0018600143726298043, 0.09443953119304584
-0.002058438437259779, 0.0993893312185782
-0.0022071755298841244, 0.10392635020836949
-0.002312582156954807, 0.10806548132639697
-0.0023805012885376236, 0.11182501196303866
-0.002416261735991609, 0.11522561675536884
-0.002424688588605816, 0.11828951572592222
-0.0024101216834339543, 0.12103977860622282
0.21669314880440296, 0.03429276021882871
0.2242943421415289, 0.027321902590489257
0.23069415363258347, 0.020790734391714506
0.23554818543650524, 0.014971019103548514
0.23846075186101923, 0.010218493405358003
0.23898056857501068, 0.006997202100467368
0.23659679976727674, 0.005605685775464565
0.23075829218661237, 0.005432713475134461
0.2210833055831606, 0.0055520126769231844
0.2077493030721567, 0.005631131416391383
0.1915596637273908, 0.005727846313987234
0.17360815591261364, 0.005984292018594224
0.1549351968963582, 0.006277542181117869
0.1363947274940933, 0.006336400342498277
0.11866571953116896, 0.006133447813903415
0.10226921116758987, 0.005974160705713657
0.0875769187819757, 0.006130439060305809
0.07481622742007182, 0.006403536666050938
0.06408143886974524, 0.006425391527965419
0.05534335177851842, 0.006087185950297299
0.04845089888486198, 0.005609340306536569
0.04312759704888011, 0.0054681245207721645
0.03900492095427579, 0.006356044502030828
0.03572386738904956, 0.008632353903342377
0.03300407805050022, 0.011891223220052986
0.030640662445394304, 0.015548097592429214
0.02848835159323647, 0.019122216312067248
0.026448538071444254, 0.022232568950617367
0.024458832117589157, 0.024576397042035843
0.022484649582718987, 0.025919903640025214
0.02051242305563966, 0.026095030897974818
0.018544088689717204, 0.024999359290231598
0.0165925500564225, 0.022599805354562165
0.014677858245453177, 0.018946163569710885
0.012823875620326648, 0.014222884303647713
0.011055210013765108, 0.00902369861840678
0.009394217328638736, 0.0062310031315793175
0.00785794243590299, 0.010533238156136243
0.006456202310434818, 0.01793590533514989
0.005192510918692691, 0.026097997695865918
0.004065720665524654, 0.03445293918524407
0.00307134782848284, 0.04274998907927447
0.0022026119887955573, 0.05083400866183158
0.0014512437629289172, 0.05859851096758428
0.0008081055824892513, 0.06596973117665718
0.000263662311962187, 0.07289867153282867
-0.0001916681240484492, 0.0793558867151153
-0.0005672594269692256, 0.08532751088414277
-0.0008720968009607408, 0.09081201573822131
-0.0011146556654145787, 0.09581749429524163
-0.0013028259599983077, 0.1003593699947384
-0.0014438713629095798, 0.10445846963339395
-0.0015444148508305684, 0.1081394142716968
-0.001610443757579651, 0.11142928937510477
-0.001647328902016169, 0.11435655950178587
-0.0016598535082080188, 0.11695019584506511
-0.0016522485773134046, 0.11923898761447635
0.197041831822344, 0.03506207016257
0.20690756742547253, 0.02783107503936279
0.215863841368698, 0.02100057521176948
0.22351262567747227, 0.01486945765950054
0.22937344041514382, 0.009832027773456868
0.232870368444005, 0.006425670412199541
0.23331757877293036, 0.005042524667685626
0.22993417948570652, 0.004942231501878686
0.22211731097537477, 0.005068015785728082
0.20996322358836572, 0.0051153619210867534
0.19436655472167155, 0.00518459769728317
0.17659287897460157, 0.005492912243104484
0.15784224646418438, 0.005879535609273603
0.13908415613488415, 0.005951906380617972
